# OpenSignals Text File Format. Version 1
# {"98:D3:51:FD:71:01": {"position": 0, "device": "bitalino_rev", "device name": "98:D3:51:FD:71:01", "device connection": "BTH98:D3:51:FD:71:01", "sampling rate": 1000, "resolution": [4, 1, 1, 1, 1, 10], "firmware version": 1282, "comments": "aQ", "keywords": "", "mode": 0, "sync interval": 2, "date": "2024-4-19", "time": "10:48:24.352", "channels": [2], "sensor": ["RAW"], "label": ["A2"], "column": ["nSeq", "I1", "I2", "O1", "O2", "A2"], "special": [{}], "digital IO": [0, 0, 1, 1]}}
# EndOfHeader
0	0	0	0	0	580	
1	0	0	0	0	578	
2	0	0	0	0	577	
3	0	0	0	0	575	
4	0	0	0	0	574	
5	0	0	0	0	575	
6	0	0	0	0	573	
7	0	0	0	0	572	
8	0	0	0	0	570	
9	0	0	0	0	568	
10	0	0	0	0	568	
11	0	0	0	0	566	
12	0	0	0	0	565	
13	0	0	0	0	566	
14	0	0	0	0	563	
15	0	0	0	0	563	
0	0	0	0	0	561	
1	0	0	0	0	559	
2	0	0	0	0	557	
3	0	0	0	0	555	
4	0	0	0	0	555	
5	0	0	0	0	553	
6	0	0	0	0	551	
7	0	0	0	0	550	
8	0	0	0	0	548	
9	0	0	0	0	548	
10	0	0	0	0	547	
11	0	0	0	0	544	
12	0	0	0	0	543	
13	0	0	0	0	542	
14	0	0	0	0	541	
15	0	0	0	0	539	
0	0	0	0	0	538	
1	0	0	0	0	537	
2	0	0	0	0	535	
3	0	0	0	0	535	
4	0	0	0	0	534	
5	0	0	0	0	532	
6	0	0	0	0	531	
7	0	0	0	0	527	
8	0	0	0	0	527	
9	0	0	0	0	524	
10	0	0	0	0	522	
11	0	0	0	0	520	
12	0	0	0	0	517	
13	0	0	0	0	515	
14	0	0	0	0	513	
15	0	0	0	0	510	
0	0	0	0	0	508	
1	0	0	0	0	504	
2	0	0	0	0	503	
3	0	0	0	0	500	
4	0	0	0	0	498	
5	0	0	0	0	495	
6	0	0	0	0	492	
7	0	0	0	0	491	
8	0	0	0	0	488	
9	0	0	0	0	486	
10	0	0	0	0	485	
11	0	0	0	0	481	
12	0	0	0	0	480	
13	0	0	0	0	478	
14	0	0	0	0	475	
15	0	0	0	0	475	
0	0	0	0	0	472	
1	0	0	0	0	472	
2	0	0	0	0	471	
3	0	0	0	0	470	
4	0	0	0	0	469	
5	0	0	0	0	468	
6	0	0	0	0	468	
7	0	0	0	0	468	
8	0	0	0	0	467	
9	0	0	0	0	467	
10	0	0	0	0	466	
11	0	0	0	0	466	
12	0	0	0	0	465	
13	0	0	0	0	464	
14	0	0	0	0	465	
15	0	0	0	0	463	
0	0	0	0	0	464	
1	0	0	0	0	463	
2	0	0	0	0	462	
3	0	0	0	0	462	
4	0	0	0	0	461	
5	0	0	0	0	461	
6	0	0	0	0	460	
7	0	0	0	0	460	
8	0	0	0	0	462	
9	0	0	0	0	461	
10	0	0	0	0	462	
11	0	0	0	0	462	
12	0	0	0	0	462	
13	0	0	0	0	463	
14	0	0	0	0	462	
15	0	0	0	0	463	
0	0	0	0	0	463	
1	0	0	0	0	463	
2	0	0	0	0	464	
3	0	0	0	0	464	
4	0	0	0	0	466	
5	0	0	0	0	464	
6	0	0	0	0	465	
7	0	0	0	0	466	
8	0	0	0	0	466	
9	0	0	0	0	467	
10	0	0	0	0	467	
11	0	0	0	0	467	
12	0	0	0	0	468	
13	0	0	0	0	467	
14	0	0	0	0	468	
15	0	0	0	0	468	
0	0	0	0	0	468	
1	0	0	0	0	468	
2	0	0	0	0	468	
3	0	0	0	0	470	
4	0	0	0	0	470	
5	0	0	0	0	470	
6	0	0	0	0	470	
7	0	0	0	0	469	
8	0	0	0	0	470	
9	0	0	0	0	470	
10	0	0	0	0	471	
11	0	0	0	0	471	
12	0	0	0	0	470	
13	0	0	0	0	471	
14	0	0	0	0	471	
15	0	0	0	0	470	
0	0	0	0	0	469	
1	0	0	0	0	465	
2	0	0	0	0	463	
3	0	0	0	0	460	
4	0	0	0	0	457	
5	0	0	0	0	455	
6	0	0	0	0	450	
7	0	0	0	0	448	
8	0	0	0	0	445	
9	0	0	0	0	441	
10	0	0	0	0	439	
11	0	0	0	0	434	
12	0	0	0	0	432	
13	0	0	0	0	428	
14	0	0	0	0	425	
15	0	0	0	0	421	
0	0	0	0	0	418	
1	0	0	0	0	415	
2	0	0	0	0	413	
3	0	0	0	0	409	
4	0	0	0	0	407	
5	0	0	0	0	402	
6	0	0	0	0	401	
7	0	0	0	0	397	
8	0	0	0	0	394	
9	0	0	0	0	391	
10	0	0	0	0	388	
11	0	0	0	0	385	
12	0	0	0	0	383	
13	0	0	0	0	380	
14	0	0	0	0	378	
15	0	0	0	0	376	
0	0	0	0	0	375	
1	0	0	0	0	373	
2	0	0	0	0	371	
3	0	0	0	0	371	
4	0	0	0	0	369	
5	0	0	0	0	369	
6	0	0	0	0	368	
7	0	0	0	0	367	
8	0	0	0	0	366	
9	0	0	0	0	366	
10	0	0	0	0	367	
11	0	0	0	0	365	
12	0	0	0	0	364	
13	0	0	0	0	364	
14	0	0	0	0	363	
15	0	0	0	0	362	
0	0	0	0	0	361	
1	0	0	0	0	359	
2	0	0	0	0	359	
3	0	0	0	0	358	
4	0	0	0	0	358	
5	0	0	0	0	356	
6	0	0	0	0	355	
7	0	0	0	0	354	
8	0	0	0	0	353	
9	0	0	0	0	352	
10	0	0	0	0	352	
11	0	0	0	0	350	
12	0	0	0	0	348	
13	0	0	0	0	347	
14	0	0	0	0	347	
15	0	0	0	0	348	
0	0	0	0	0	349	
1	0	0	0	0	352	
2	0	0	0	0	355	
3	0	0	0	0	360	
4	0	0	0	0	364	
5	0	0	0	0	368	
6	0	0	0	0	373	
7	0	0	0	0	377	
8	0	0	0	0	382	
9	0	0	0	0	386	
10	0	0	0	0	390	
11	0	0	0	0	396	
12	0	0	0	0	399	
13	0	0	0	0	405	
14	0	0	0	0	409	
15	0	0	0	0	412	
0	0	0	0	0	415	
1	0	0	0	0	416	
2	0	0	0	0	418	
3	0	0	0	0	419	
4	0	0	0	0	419	
5	0	0	0	0	420	
6	0	0	0	0	420	
7	0	0	0	0	422	
8	0	0	0	0	421	
9	0	0	0	0	421	
10	0	0	0	0	421	
11	0	0	0	0	421	
12	0	0	0	0	423	
13	0	0	0	0	422	
14	0	0	0	0	422	
15	0	0	0	0	424	
0	0	0	0	0	427	
1	0	0	0	0	431	
2	0	0	0	0	433	
3	0	0	0	0	438	
4	0	0	0	0	443	
5	0	0	0	0	446	
6	0	0	0	0	451	
7	0	0	0	0	456	
8	0	0	0	0	461	
9	0	0	0	0	465	
10	0	0	0	0	469	
11	0	0	0	0	475	
12	0	0	0	0	479	
13	0	0	0	0	483	
14	0	0	0	0	489	
15	0	0	0	0	493	
0	0	0	0	0	498	
1	0	0	0	0	502	
2	0	0	0	0	506	
3	0	0	0	0	511	
4	0	0	0	0	515	
5	0	0	0	0	520	
6	0	0	0	0	523	
7	0	0	0	0	528	
8	0	0	0	0	533	
9	0	0	0	0	536	
10	0	0	0	0	541	
11	0	0	0	0	545	
12	0	0	0	0	549	
13	0	0	0	0	554	
14	0	0	0	0	557	
15	0	0	0	0	562	
0	0	0	0	0	565	
1	0	0	0	0	568	
2	0	0	0	0	573	
3	0	0	0	0	576	
4	0	0	0	0	580	
5	0	0	0	0	583	
6	0	0	0	0	585	
7	0	0	0	0	589	
8	0	0	0	0	592	
9	0	0	0	0	596	
10	0	0	0	0	600	
11	0	0	0	0	603	
12	0	0	0	0	606	
13	0	0	0	0	609	
14	0	0	0	0	613	
15	0	0	0	0	615	
0	0	0	0	0	615	
1	0	0	0	0	618	
2	0	0	0	0	616	
3	0	0	0	0	619	
4	0	0	0	0	618	
5	0	0	0	0	618	
6	0	0	0	0	619	
7	0	0	0	0	618	
8	0	0	0	0	619	
9	0	0	0	0	618	
10	0	0	0	0	618	
11	0	0	0	0	619	
12	0	0	0	0	617	
13	0	0	0	0	618	
14	0	0	0	0	616	
15	0	0	0	0	617	
0	0	0	0	0	617	
1	0	0	0	0	615	
2	0	0	0	0	616	
3	0	0	0	0	615	
4	0	0	0	0	614	
5	0	0	0	0	615	
6	0	0	0	0	614	
7	0	0	0	0	614	
8	0	0	0	0	614	
9	0	0	0	0	613	
10	0	0	0	0	614	
11	0	0	0	0	612	
12	0	0	0	0	612	
13	0	0	0	0	611	
14	0	0	0	0	610	
15	0	0	0	0	609	
0	0	0	0	0	609	
1	0	0	0	0	610	
2	0	0	0	0	609	
3	0	0	0	0	608	
4	0	0	0	0	607	
5	0	0	0	0	607	
6	0	0	0	0	607	
7	0	0	0	0	607	
8	0	0	0	0	606	
9	0	0	0	0	607	
10	0	0	0	0	605	
11	0	0	0	0	606	
12	0	0	0	0	606	
13	0	0	0	0	604	
14	0	0	0	0	605	
15	0	0	0	0	604	
0	0	0	0	0	604	
1	0	0	0	0	604	
2	0	0	0	0	604	
3	0	0	0	0	603	
4	0	0	0	0	603	
5	0	0	0	0	604	
6	0	0	0	0	603	
7	0	0	0	0	603	
8	0	0	0	0	602	
9	0	0	0	0	602	
10	0	0	0	0	602	
11	0	0	0	0	602	
12	0	0	0	0	601	
13	0	0	0	0	602	
14	0	0	0	0	600	
15	0	0	0	0	602	
0	0	0	0	0	601	
1	0	0	0	0	600	
2	0	0	0	0	600	
3	0	0	0	0	600	
4	0	0	0	0	600	
5	0	0	0	0	601	
6	0	0	0	0	600	
7	0	0	0	0	601	
8	0	0	0	0	600	
9	0	0	0	0	600	
10	0	0	0	0	599	
11	0	0	0	0	599	
12	0	0	0	0	598	
13	0	0	0	0	598	
14	0	0	0	0	597	
15	0	0	0	0	596	
0	0	0	0	0	595	
1	0	0	0	0	595	
2	0	0	0	0	594	
3	0	0	0	0	594	
4	0	0	0	0	593	
5	0	0	0	0	592	
6	0	0	0	0	592	
7	0	0	0	0	591	
8	0	0	0	0	591	
9	0	0	0	0	591	
10	0	0	0	0	590	
11	0	0	0	0	591	
12	0	0	0	0	589	
13	0	0	0	0	589	
14	0	0	0	0	589	
15	0	0	0	0	588	
0	0	0	0	0	587	
1	0	0	0	0	585	
2	0	0	0	0	584	
3	0	0	0	0	583	
4	0	0	0	0	582	
5	0	0	0	0	581	
6	0	0	0	0	580	
7	0	0	0	0	580	
8	0	0	0	0	578	
9	0	0	0	0	577	
10	0	0	0	0	576	
11	0	0	0	0	574	
12	0	0	0	0	574	
13	0	0	0	0	573	
14	0	0	0	0	571	
15	0	0	0	0	571	
0	0	0	0	0	568	
1	0	0	0	0	569	
2	0	0	0	0	567	
3	0	0	0	0	566	
4	0	0	0	0	566	
5	0	0	0	0	563	
6	0	0	0	0	563	
7	0	0	0	0	561	
8	0	0	0	0	559	
9	0	0	0	0	558	
10	0	0	0	0	557	
11	0	0	0	0	556	
12	0	0	0	0	555	
13	0	0	0	0	553	
14	0	0	0	0	553	
15	0	0	0	0	550	
0	0	0	0	0	548	
1	0	0	0	0	547	
2	0	0	0	0	545	
3	0	0	0	0	544	
4	0	0	0	0	541	
5	0	0	0	0	541	
6	0	0	0	0	539	
7	0	0	0	0	538	
8	0	0	0	0	538	
9	0	0	0	0	535	
10	0	0	0	0	535	
11	0	0	0	0	533	
12	0	0	0	0	531	
13	0	0	0	0	531	
14	0	0	0	0	528	
15	0	0	0	0	527	
0	0	0	0	0	526	
1	0	0	0	0	523	
2	0	0	0	0	520	
3	0	0	0	0	517	
4	0	0	0	0	516	
5	0	0	0	0	513	
6	0	0	0	0	511	
7	0	0	0	0	510	
8	0	0	0	0	506	
9	0	0	0	0	504	
10	0	0	0	0	501	
11	0	0	0	0	499	
12	0	0	0	0	497	
13	0	0	0	0	494	
14	0	0	0	0	492	
15	0	0	0	0	490	
0	0	0	0	0	487	
1	0	0	0	0	486	
2	0	0	0	0	483	
3	0	0	0	0	480	
4	0	0	0	0	479	
5	0	0	0	0	476	
6	0	0	0	0	475	
7	0	0	0	0	472	
8	0	0	0	0	472	
9	0	0	0	0	470	
10	0	0	0	0	470	
11	0	0	0	0	469	
12	0	0	0	0	467	
13	0	0	0	0	467	
14	0	0	0	0	466	
15	0	0	0	0	467	
0	0	0	0	0	467	
1	0	0	0	0	465	
2	0	0	0	0	466	
3	0	0	0	0	465	
4	0	0	0	0	465	
5	0	0	0	0	465	
6	0	0	0	0	463	
7	0	0	0	0	463	
8	0	0	0	0	462	
9	0	0	0	0	461	
10	0	0	0	0	461	
11	0	0	0	0	460	
12	0	0	0	0	460	
13	0	0	0	0	460	
14	0	0	0	0	460	
15	0	0	0	0	460	
0	0	0	0	0	459	
1	0	0	0	0	460	
2	0	0	0	0	460	
3	0	0	0	0	460	
4	0	0	0	0	461	
5	0	0	0	0	460	
6	0	0	0	0	461	
7	0	0	0	0	462	
8	0	0	0	0	462	
9	0	0	0	0	463	
10	0	0	0	0	462	
11	0	0	0	0	463	
12	0	0	0	0	463	
13	0	0	0	0	463	
14	0	0	0	0	463	
15	0	0	0	0	463	
0	0	0	0	0	465	
1	0	0	0	0	464	
2	0	0	0	0	465	
3	0	0	0	0	465	
4	0	0	0	0	465	
5	0	0	0	0	466	
6	0	0	0	0	466	
7	0	0	0	0	466	
8	0	0	0	0	467	
9	0	0	0	0	467	
10	0	0	0	0	469	
11	0	0	0	0	469	
12	0	0	0	0	469	
13	0	0	0	0	470	
14	0	0	0	0	469	
15	0	0	0	0	470	
0	0	0	0	0	471	
1	0	0	0	0	471	
2	0	0	0	0	471	
3	0	0	0	0	472	
4	0	0	0	0	473	
5	0	0	0	0	472	
6	0	0	0	0	472	
7	0	0	0	0	471	
8	0	0	0	0	468	
9	0	0	0	0	466	
10	0	0	0	0	464	
11	0	0	0	0	460	
12	0	0	0	0	457	
13	0	0	0	0	453	
14	0	0	0	0	451	
15	0	0	0	0	447	
0	0	0	0	0	444	
1	0	0	0	0	440	
2	0	0	0	0	436	
3	0	0	0	0	434	
4	0	0	0	0	431	
5	0	0	0	0	427	
6	0	0	0	0	423	
7	0	0	0	0	420	
8	0	0	0	0	418	
9	0	0	0	0	414	
10	0	0	0	0	411	
11	0	0	0	0	408	
12	0	0	0	0	405	
13	0	0	0	0	402	
14	0	0	0	0	400	
15	0	0	0	0	396	
0	0	0	0	0	394	
1	0	0	0	0	390	
2	0	0	0	0	389	
3	0	0	0	0	385	
4	0	0	0	0	383	
5	0	0	0	0	380	
6	0	0	0	0	378	
7	0	0	0	0	377	
8	0	0	0	0	375	
9	0	0	0	0	374	
10	0	0	0	0	372	
11	0	0	0	0	370	
12	0	0	0	0	370	
13	0	0	0	0	369	
14	0	0	0	0	368	
15	0	0	0	0	367	
0	0	0	0	0	366	
1	0	0	0	0	366	
2	0	0	0	0	365	
3	0	0	0	0	364	
4	0	0	0	0	364	
5	0	0	0	0	363	
6	0	0	0	0	364	
7	0	0	0	0	362	
8	0	0	0	0	361	
9	0	0	0	0	359	
10	0	0	0	0	358	
11	0	0	0	0	358	
12	0	0	0	0	357	
13	0	0	0	0	356	
14	0	0	0	0	355	
15	0	0	0	0	353	
0	0	0	0	0	353	
1	0	0	0	0	351	
2	0	0	0	0	350	
3	0	0	0	0	348	
4	0	0	0	0	347	
5	0	0	0	0	347	
6	0	0	0	0	347	
7	0	0	0	0	348	
8	0	0	0	0	349	
9	0	0	0	0	352	
10	0	0	0	0	355	
11	0	0	0	0	359	
12	0	0	0	0	363	
13	0	0	0	0	368	
14	0	0	0	0	372	
15	0	0	0	0	378	
0	0	0	0	0	382	
1	0	0	0	0	387	
2	0	0	0	0	391	
3	0	0	0	0	395	
4	0	0	0	0	400	
5	0	0	0	0	405	
6	0	0	0	0	409	
7	0	0	0	0	412	
8	0	0	0	0	414	
9	0	0	0	0	416	
10	0	0	0	0	418	
11	0	0	0	0	419	
12	0	0	0	0	419	
13	0	0	0	0	419	
14	0	0	0	0	421	
15	0	0	0	0	422	
0	0	0	0	0	422	
1	0	0	0	0	422	
2	0	0	0	0	422	
3	0	0	0	0	422	
4	0	0	0	0	422	
5	0	0	0	0	422	
6	0	0	0	0	423	
7	0	0	0	0	425	
8	0	0	0	0	428	
9	0	0	0	0	431	
10	0	0	0	0	435	
11	0	0	0	0	439	
12	0	0	0	0	443	
13	0	0	0	0	448	
14	0	0	0	0	451	
15	0	0	0	0	456	
0	0	0	0	0	461	
1	0	0	0	0	466	
2	0	0	0	0	471	
3	0	0	0	0	475	
4	0	0	0	0	480	
5	0	0	0	0	485	
6	0	0	0	0	488	
7	0	0	0	0	494	
8	0	0	0	0	497	
9	0	0	0	0	502	
10	0	0	0	0	507	
11	0	0	0	0	511	
12	0	0	0	0	516	
13	0	0	0	0	521	
14	0	0	0	0	524	
15	0	0	0	0	530	
0	0	0	0	0	533	
1	0	0	0	0	538	
2	0	0	0	0	542	
3	0	0	0	0	545	
4	0	0	0	0	550	
5	0	0	0	0	553	
6	0	0	0	0	558	
7	0	0	0	0	563	
8	0	0	0	0	566	
9	0	0	0	0	569	
10	0	0	0	0	573	
11	0	0	0	0	576	
12	0	0	0	0	580	
13	0	0	0	0	584	
14	0	0	0	0	587	
15	0	0	0	0	590	
0	0	0	0	0	593	
1	0	0	0	0	597	
2	0	0	0	0	600	
3	0	0	0	0	605	
4	0	0	0	0	608	
5	0	0	0	0	612	
6	0	0	0	0	614	
7	0	0	0	0	615	
8	0	0	0	0	617	
9	0	0	0	0	617	
10	0	0	0	0	619	
11	0	0	0	0	618	
12	0	0	0	0	617	
13	0	0	0	0	619	
14	0	0	0	0	617	
15	0	0	0	0	619	
0	0	0	0	0	618	
1	0	0	0	0	619	
2	0	0	0	0	618	
3	0	0	0	0	618	
4	0	0	0	0	617	
5	0	0	0	0	618	
6	0	0	0	0	617	
7	0	0	0	0	619	
8	0	0	0	0	617	
9	0	0	0	0	618	
10	0	0	0	0	617	
11	0	0	0	0	617	
12	0	0	0	0	616	
13	0	0	0	0	616	
14	0	0	0	0	615	
15	0	0	0	0	615	
0	0	0	0	0	615	
1	0	0	0	0	614	
2	0	0	0	0	613	
3	0	0	0	0	613	
4	0	0	0	0	612	
5	0	0	0	0	611	
6	0	0	0	0	611	
7	0	0	0	0	610	
8	0	0	0	0	611	
9	0	0	0	0	610	
10	0	0	0	0	609	
11	0	0	0	0	610	
12	0	0	0	0	608	
13	0	0	0	0	609	
14	0	0	0	0	609	
15	0	0	0	0	608	
0	0	0	0	0	608	
1	0	0	0	0	606	
2	0	0	0	0	607	
3	0	0	0	0	605	
4	0	0	0	0	605	
5	0	0	0	0	605	
6	0	0	0	0	604	
7	0	0	0	0	604	
8	0	0	0	0	604	
9	0	0	0	0	603	
10	0	0	0	0	604	
11	0	0	0	0	603	
12	0	0	0	0	604	
13	0	0	0	0	604	
14	0	0	0	0	603	
15	0	0	0	0	604	
0	0	0	0	0	603	
1	0	0	0	0	604	
2	0	0	0	0	603	
3	0	0	0	0	603	
4	0	0	0	0	603	
5	0	0	0	0	603	
6	0	0	0	0	603	
7	0	0	0	0	603	
8	0	0	0	0	602	
9	0	0	0	0	601	
10	0	0	0	0	601	
11	0	0	0	0	601	
12	0	0	0	0	601	
13	0	0	0	0	601	
14	0	0	0	0	601	
15	0	0	0	0	600	
0	0	0	0	0	601	
1	0	0	0	0	600	
2	0	0	0	0	600	
3	0	0	0	0	599	
4	0	0	0	0	598	
5	0	0	0	0	598	
6	0	0	0	0	596	
7	0	0	0	0	597	
8	0	0	0	0	598	
9	0	0	0	0	595	
10	0	0	0	0	596	
11	0	0	0	0	594	
12	0	0	0	0	593	
13	0	0	0	0	594	
14	0	0	0	0	592	
15	0	0	0	0	592	
0	0	0	0	0	591	
1	0	0	0	0	591	
2	0	0	0	0	591	
3	0	0	0	0	590	
4	0	0	0	0	590	
5	0	0	0	0	587	
6	0	0	0	0	588	
7	0	0	0	0	588	
8	0	0	0	0	586	
9	0	0	0	0	587	
10	0	0	0	0	585	
11	0	0	0	0	585	
12	0	0	0	0	584	
13	0	0	0	0	583	
14	0	0	0	0	582	
15	0	0	0	0	580	
0	0	0	0	0	579	
1	0	0	0	0	577	
2	0	0	0	0	575	
3	0	0	0	0	576	
4	0	0	0	0	574	
5	0	0	0	0	573	
6	0	0	0	0	572	
7	0	0	0	0	570	
8	0	0	0	0	570	
9	0	0	0	0	568	
10	0	0	0	0	568	
11	0	0	0	0	568	
12	0	0	0	0	566	
13	0	0	0	0	565	
14	0	0	0	0	564	
15	0	0	0	0	563	
0	0	0	0	0	562	
1	0	0	0	0	560	
2	0	0	0	0	559	
3	0	0	0	0	557	
4	0	0	0	0	555	
5	0	0	0	0	555	
6	0	0	0	0	552	
7	0	0	0	0	552	
8	0	0	0	0	550	
9	0	0	0	0	548	
10	0	0	0	0	547	
11	0	0	0	0	545	
12	0	0	0	0	545	
13	0	0	0	0	543	
14	0	0	0	0	542	
15	0	0	0	0	541	
0	0	0	0	0	539	
1	0	0	0	0	537	
2	0	0	0	0	537	
3	0	0	0	0	534	
4	0	0	0	0	534	
5	0	0	0	0	531	
6	0	0	0	0	531	
7	0	0	0	0	528	
8	0	0	0	0	526	
9	0	0	0	0	524	
10	0	0	0	0	521	
11	0	0	0	0	519	
12	0	0	0	0	516	
13	0	0	0	0	513	
14	0	0	0	0	511	
15	0	0	0	0	508	
0	0	0	0	0	506	
1	0	0	0	0	504	
2	0	0	0	0	501	
3	0	0	0	0	499	
4	0	0	0	0	496	
5	0	0	0	0	494	
6	0	0	0	0	492	
7	0	0	0	0	490	
8	0	0	0	0	488	
9	0	0	0	0	485	
10	0	0	0	0	484	
11	0	0	0	0	481	
12	0	0	0	0	479	
13	0	0	0	0	477	
14	0	0	0	0	474	
15	0	0	0	0	473	
0	0	0	0	0	472	
1	0	0	0	0	471	
2	0	0	0	0	470	
3	0	0	0	0	469	
4	0	0	0	0	469	
5	0	0	0	0	467	
6	0	0	0	0	467	
7	0	0	0	0	466	
8	0	0	0	0	466	
9	0	0	0	0	466	
10	0	0	0	0	465	
11	0	0	0	0	464	
12	0	0	0	0	464	
13	0	0	0	0	463	
14	0	0	0	0	463	
15	0	0	0	0	462	
0	0	0	0	0	462	
1	0	0	0	0	463	
2	0	0	0	0	461	
3	0	0	0	0	461	
4	0	0	0	0	460	
5	0	0	0	0	460	
6	0	0	0	0	460	
7	0	0	0	0	460	
8	0	0	0	0	461	
9	0	0	0	0	460	
10	0	0	0	0	461	
11	0	0	0	0	460	
12	0	0	0	0	460	
13	0	0	0	0	460	
14	0	0	0	0	460	
15	0	0	0	0	461	
0	0	0	0	0	462	
1	0	0	0	0	461	
2	0	0	0	0	463	
3	0	0	0	0	463	
4	0	0	0	0	463	
5	0	0	0	0	463	
6	0	0	0	0	463	
7	0	0	0	0	465	
8	0	0	0	0	465	
9	0	0	0	0	464	
10	0	0	0	0	465	
11	0	0	0	0	464	
12	0	0	0	0	465	
13	0	0	0	0	465	
14	0	0	0	0	465	
15	0	0	0	0	466	
0	0	0	0	0	466	
1	0	0	0	0	467	
2	0	0	0	0	467	
3	0	0	0	0	467	
4	0	0	0	0	468	
5	0	0	0	0	467	
6	0	0	0	0	469	
7	0	0	0	0	470	
8	0	0	0	0	470	
9	0	0	0	0	470	
10	0	0	0	0	469	
11	0	0	0	0	471	
12	0	0	0	0	470	
13	0	0	0	0	470	
14	0	0	0	0	471	
15	0	0	0	0	469	
0	0	0	0	0	468	
1	0	0	0	0	465	
2	0	0	0	0	462	
3	0	0	0	0	460	
4	0	0	0	0	456	
5	0	0	0	0	454	
6	0	0	0	0	451	
7	0	0	0	0	447	
8	0	0	0	0	444	
9	0	0	0	0	440	
10	0	0	0	0	437	
11	0	0	0	0	434	
12	0	0	0	0	430	
13	0	0	0	0	426	
14	0	0	0	0	423	
15	0	0	0	0	421	
0	0	0	0	0	417	
1	0	0	0	0	413	
2	0	0	0	0	411	
3	0	0	0	0	406	
4	0	0	0	0	405	
5	0	0	0	0	401	
6	0	0	0	0	398	
7	0	0	0	0	395	
8	0	0	0	0	392	
9	0	0	0	0	390	
10	0	0	0	0	387	
11	0	0	0	0	384	
12	0	0	0	0	382	
13	0	0	0	0	378	
14	0	0	0	0	377	
15	0	0	0	0	375	
0	0	0	0	0	372	
1	0	0	0	0	371	
2	0	0	0	0	371	
3	0	0	0	0	371	
4	0	0	0	0	370	
5	0	0	0	0	369	
6	0	0	0	0	368	
7	0	0	0	0	367	
8	0	0	0	0	368	
9	0	0	0	0	367	
10	0	0	0	0	366	
11	0	0	0	0	366	
12	0	0	0	0	365	
13	0	0	0	0	365	
14	0	0	0	0	364	
15	0	0	0	0	363	
0	0	0	0	0	362	
1	0	0	0	0	360	
2	0	0	0	0	361	
3	0	0	0	0	359	
4	0	0	0	0	358	
5	0	0	0	0	356	
6	0	0	0	0	354	
7	0	0	0	0	354	
8	0	0	0	0	352	
9	0	0	0	0	351	
10	0	0	0	0	350	
11	0	0	0	0	348	
12	0	0	0	0	348	
13	0	0	0	0	347	
14	0	0	0	0	347	
15	0	0	0	0	348	
0	0	0	0	0	350	
1	0	0	0	0	353	
2	0	0	0	0	356	
3	0	0	0	0	360	
4	0	0	0	0	364	
5	0	0	0	0	369	
6	0	0	0	0	374	
7	0	0	0	0	378	
8	0	0	0	0	383	
9	0	0	0	0	387	
10	0	0	0	0	391	
11	0	0	0	0	397	
12	0	0	0	0	401	
13	0	0	0	0	406	
14	0	0	0	0	410	
15	0	0	0	0	412	
0	0	0	0	0	415	
1	0	0	0	0	417	
2	0	0	0	0	418	
3	0	0	0	0	419	
4	0	0	0	0	420	
5	0	0	0	0	421	
6	0	0	0	0	421	
7	0	0	0	0	422	
8	0	0	0	0	422	
9	0	0	0	0	422	
10	0	0	0	0	423	
11	0	0	0	0	422	
12	0	0	0	0	423	
13	0	0	0	0	423	
14	0	0	0	0	423	
15	0	0	0	0	427	
0	0	0	0	0	429	
1	0	0	0	0	432	
2	0	0	0	0	436	
3	0	0	0	0	439	
4	0	0	0	0	443	
5	0	0	0	0	447	
6	0	0	0	0	451	
7	0	0	0	0	457	
8	0	0	0	0	460	
9	0	0	0	0	465	
10	0	0	0	0	470	
11	0	0	0	0	475	
12	0	0	0	0	480	
13	0	0	0	0	484	
14	0	0	0	0	488	
15	0	0	0	0	494	
0	0	0	0	0	498	
1	0	0	0	0	504	
2	0	0	0	0	507	
3	0	0	0	0	513	
4	0	0	0	0	516	
5	0	0	0	0	521	
6	0	0	0	0	526	
7	0	0	0	0	530	
8	0	0	0	0	534	
9	0	0	0	0	537	
10	0	0	0	0	541	
11	0	0	0	0	546	
12	0	0	0	0	549	
13	0	0	0	0	554	
14	0	0	0	0	557	
15	0	0	0	0	561	
0	0	0	0	0	565	
1	0	0	0	0	568	
2	0	0	0	0	572	
3	0	0	0	0	575	
4	0	0	0	0	579	
5	0	0	0	0	583	
6	0	0	0	0	586	
7	0	0	0	0	591	
8	0	0	0	0	594	
9	0	0	0	0	598	
10	0	0	0	0	601	
11	0	0	0	0	604	
12	0	0	0	0	608	
13	0	0	0	0	611	
14	0	0	0	0	613	
15	0	0	0	0	615	
0	0	0	0	0	616	
1	0	0	0	0	618	
2	0	0	0	0	617	
3	0	0	0	0	618	
4	0	0	0	0	619	
5	0	0	0	0	618	
6	0	0	0	0	619	
7	0	0	0	0	618	
8	0	0	0	0	618	
9	0	0	0	0	618	
10	0	0	0	0	617	
11	0	0	0	0	617	
12	0	0	0	0	616	
13	0	0	0	0	616	
14	0	0	0	0	616	
15	0	0	0	0	615	
0	0	0	0	0	616	
1	0	0	0	0	616	
2	0	0	0	0	615	
3	0	0	0	0	615	
4	0	0	0	0	615	
5	0	0	0	0	615	
6	0	0	0	0	615	
7	0	0	0	0	613	
8	0	0	0	0	615	
9	0	0	0	0	612	
10	0	0	0	0	613	
11	0	0	0	0	612	
12	0	0	0	0	612	
13	0	0	0	0	612	
14	0	0	0	0	611	
15	0	0	0	0	611	
0	0	0	0	0	609	
1	0	0	0	0	609	
2	0	0	0	0	609	
3	0	0	0	0	608	
4	0	0	0	0	608	
5	0	0	0	0	607	
6	0	0	0	0	606	
7	0	0	0	0	605	
8	0	0	0	0	604	
9	0	0	0	0	605	
10	0	0	0	0	604	
11	0	0	0	0	604	
12	0	0	0	0	604	
13	0	0	0	0	603	
14	0	0	0	0	603	
15	0	0	0	0	603	
0	0	0	0	0	602	
1	0	0	0	0	603	
2	0	0	0	0	602	
3	0	0	0	0	603	
4	0	0	0	0	602	
5	0	0	0	0	601	
6	0	0	0	0	603	
7	0	0	0	0	601	
8	0	0	0	0	602	
9	0	0	0	0	601	
10	0	0	0	0	601	
11	0	0	0	0	601	
12	0	0	0	0	601	
13	0	0	0	0	601	
14	0	0	0	0	601	
15	0	0	0	0	601	
0	0	0	0	0	600	
1	0	0	0	0	599	
2	0	0	0	0	599	
3	0	0	0	0	600	
4	0	0	0	0	598	
5	0	0	0	0	599	
6	0	0	0	0	598	
7	0	0	0	0	599	
8	0	0	0	0	598	
9	0	0	0	0	596	
10	0	0	0	0	596	
11	0	0	0	0	595	
12	0	0	0	0	595	
13	0	0	0	0	594	
14	0	0	0	0	594	
15	0	0	0	0	594	
0	0	0	0	0	593	
1	0	0	0	0	594	
2	0	0	0	0	593	
3	0	0	0	0	593	
4	0	0	0	0	593	
5	0	0	0	0	592	
6	0	0	0	0	593	
7	0	0	0	0	592	
8	0	0	0	0	591	
9	0	0	0	0	592	
10	0	0	0	0	590	
11	0	0	0	0	591	
12	0	0	0	0	590	
13	0	0	0	0	589	
14	0	0	0	0	589	
15	0	0	0	0	587	
0	0	0	0	0	586	
1	0	0	0	0	584	
2	0	0	0	0	583	
3	0	0	0	0	583	
4	0	0	0	0	582	
5	0	0	0	0	582	
6	0	0	0	0	580	
7	0	0	0	0	579	
8	0	0	0	0	579	
9	0	0	0	0	577	
10	0	0	0	0	577	
11	0	0	0	0	575	
12	0	0	0	0	573	
13	0	0	0	0	574	
14	0	0	0	0	571	
15	0	0	0	0	571	
0	0	0	0	0	570	
1	0	0	0	0	568	
2	0	0	0	0	568	
3	0	0	0	0	567	
4	0	0	0	0	566	
5	0	0	0	0	564	
6	0	0	0	0	563	
7	0	0	0	0	562	
8	0	0	0	0	560	
9	0	0	0	0	559	
10	0	0	0	0	557	
11	0	0	0	0	555	
12	0	0	0	0	554	
13	0	0	0	0	551	
14	0	0	0	0	551	
15	0	0	0	0	548	
0	0	0	0	0	547	
1	0	0	0	0	547	
2	0	0	0	0	544	
3	0	0	0	0	544	
4	0	0	0	0	542	
5	0	0	0	0	540	
6	0	0	0	0	539	
7	0	0	0	0	537	
8	0	0	0	0	536	
9	0	0	0	0	534	
10	0	0	0	0	533	
11	0	0	0	0	532	
12	0	0	0	0	531	
13	0	0	0	0	530	
14	0	0	0	0	528	
15	0	0	0	0	526	
0	0	0	0	0	524	
1	0	0	0	0	521	
2	0	0	0	0	520	
3	0	0	0	0	518	
4	0	0	0	0	515	
5	0	0	0	0	514	
6	0	0	0	0	510	
7	0	0	0	0	509	
8	0	0	0	0	506	
9	0	0	0	0	503	
10	0	0	0	0	501	
11	0	0	0	0	498	
12	0	0	0	0	497	
13	0	0	0	0	494	
14	0	0	0	0	492	
15	0	0	0	0	489	
0	0	0	0	0	487	
1	0	0	0	0	484	
2	0	0	0	0	482	
3	0	0	0	0	479	
4	0	0	0	0	478	
5	0	0	0	0	475	
6	0	0	0	0	475	
7	0	0	0	0	472	
8	0	0	0	0	471	
9	0	0	0	0	470	
10	0	0	0	0	468	
11	0	0	0	0	469	
12	0	0	0	0	468	
13	0	0	0	0	467	
14	0	0	0	0	467	
15	0	0	0	0	465	
0	0	0	0	0	465	
1	0	0	0	0	464	
2	0	0	0	0	464	
3	0	0	0	0	463	
4	0	0	0	0	462	
5	0	0	0	0	463	
6	0	0	0	0	463	
7	0	0	0	0	462	
8	0	0	0	0	462	
9	0	0	0	0	461	
10	0	0	0	0	462	
11	0	0	0	0	462	
12	0	0	0	0	461	
13	0	0	0	0	461	
14	0	0	0	0	460	
15	0	0	0	0	462	
0	0	0	0	0	460	
1	0	0	0	0	460	
2	0	0	0	0	461	
3	0	0	0	0	460	
4	0	0	0	0	461	
5	0	0	0	0	461	
6	0	0	0	0	462	
7	0	0	0	0	461	
8	0	0	0	0	462	
9	0	0	0	0	463	
10	0	0	0	0	462	
11	0	0	0	0	463	
12	0	0	0	0	463	
13	0	0	0	0	463	
14	0	0	0	0	465	
15	0	0	0	0	466	
0	0	0	0	0	465	
1	0	0	0	0	466	
2	0	0	0	0	466	
3	0	0	0	0	467	
4	0	0	0	0	466	
5	0	0	0	0	467	
6	0	0	0	0	468	
7	0	0	0	0	468	
8	0	0	0	0	469	
9	0	0	0	0	469	
10	0	0	0	0	469	
11	0	0	0	0	470	
12	0	0	0	0	470	
13	0	0	0	0	470	
14	0	0	0	0	470	
15	0	0	0	0	470	
0	0	0	0	0	472	
1	0	0	0	0	471	
2	0	0	0	0	472	
3	0	0	0	0	472	
4	0	0	0	0	472	
5	0	0	0	0	472	
6	0	0	0	0	472	
7	0	0	0	0	472	
8	0	0	0	0	470	
9	0	0	0	0	467	
10	0	0	0	0	464	
11	0	0	0	0	461	
12	0	0	0	0	459	
13	0	0	0	0	455	
14	0	0	0	0	451	
15	0	0	0	0	448	
0	0	0	0	0	444	
1	0	0	0	0	440	
2	0	0	0	0	438	
3	0	0	0	0	434	
4	0	0	0	0	431	
5	0	0	0	0	427	
6	0	0	0	0	425	
7	0	0	0	0	421	
8	0	0	0	0	418	
9	0	0	0	0	414	
10	0	0	0	0	410	
11	0	0	0	0	408	
12	0	0	0	0	405	
13	0	0	0	0	401	
14	0	0	0	0	398	
15	0	0	0	0	395	
0	0	0	0	0	394	
1	0	0	0	0	390	
2	0	0	0	0	388	
3	0	0	0	0	385	
4	0	0	0	0	382	
5	0	0	0	0	379	
6	0	0	0	0	377	
7	0	0	0	0	375	
8	0	0	0	0	374	
9	0	0	0	0	371	
10	0	0	0	0	372	
11	0	0	0	0	370	
12	0	0	0	0	369	
13	0	0	0	0	368	
14	0	0	0	0	367	
15	0	0	0	0	368	
0	0	0	0	0	367	
1	0	0	0	0	366	
2	0	0	0	0	365	
3	0	0	0	0	364	
4	0	0	0	0	366	
5	0	0	0	0	364	
6	0	0	0	0	364	
7	0	0	0	0	363	
8	0	0	0	0	362	
9	0	0	0	0	362	
10	0	0	0	0	361	
11	0	0	0	0	359	
12	0	0	0	0	358	
13	0	0	0	0	355	
14	0	0	0	0	357	
15	0	0	0	0	355	
0	0	0	0	0	354	
1	0	0	0	0	353	
2	0	0	0	0	351	
3	0	0	0	0	351	
4	0	0	0	0	349	
5	0	0	0	0	348	
6	0	0	0	0	348	
7	0	0	0	0	349	
8	0	0	0	0	351	
9	0	0	0	0	353	
10	0	0	0	0	357	
11	0	0	0	0	361	
12	0	0	0	0	365	
13	0	0	0	0	370	
14	0	0	0	0	373	
15	0	0	0	0	378	
0	0	0	0	0	383	
1	0	0	0	0	387	
2	0	0	0	0	393	
3	0	0	0	0	397	
4	0	0	0	0	401	
5	0	0	0	0	407	
6	0	0	0	0	411	
7	0	0	0	0	414	
8	0	0	0	0	416	
9	0	0	0	0	418	
10	0	0	0	0	419	
11	0	0	0	0	419	
12	0	0	0	0	421	
13	0	0	0	0	420	
14	0	0	0	0	421	
15	0	0	0	0	422	
0	0	0	0	0	422	
1	0	0	0	0	423	
2	0	0	0	0	423	
3	0	0	0	0	422	
4	0	0	0	0	423	
5	0	0	0	0	422	
6	0	0	0	0	423	
7	0	0	0	0	425	
8	0	0	0	0	427	
9	0	0	0	0	431	
10	0	0	0	0	434	
11	0	0	0	0	439	
12	0	0	0	0	442	
13	0	0	0	0	448	
14	0	0	0	0	452	
15	0	0	0	0	456	
0	0	0	0	0	461	
1	0	0	0	0	465	
2	0	0	0	0	469	
3	0	0	0	0	475	
4	0	0	0	0	480	
5	0	0	0	0	485	
6	0	0	0	0	488	
7	0	0	0	0	493	
8	0	0	0	0	496	
9	0	0	0	0	501	
10	0	0	0	0	506	
11	0	0	0	0	510	
12	0	0	0	0	514	
13	0	0	0	0	519	
14	0	0	0	0	523	
15	0	0	0	0	527	
0	0	0	0	0	531	
1	0	0	0	0	535	
2	0	0	0	0	540	
3	0	0	0	0	544	
4	0	0	0	0	549	
5	0	0	0	0	553	
6	0	0	0	0	557	
7	0	0	0	0	561	
8	0	0	0	0	564	
9	0	0	0	0	569	
10	0	0	0	0	572	
11	0	0	0	0	576	
12	0	0	0	0	581	
13	0	0	0	0	583	
14	0	0	0	0	588	
15	0	0	0	0	591	
0	0	0	0	0	593	
1	0	0	0	0	598	
2	0	0	0	0	600	
3	0	0	0	0	605	
4	0	0	0	0	607	
5	0	0	0	0	610	
6	0	0	0	0	612	
7	0	0	0	0	615	
8	0	0	0	0	617	
9	0	0	0	0	618	
10	0	0	0	0	619	
11	0	0	0	0	620	
12	0	0	0	0	619	
13	0	0	0	0	620	
14	0	0	0	0	619	
15	0	0	0	0	619	
0	0	0	0	0	620	
1	0	0	0	0	617	
2	0	0	0	0	618	
3	0	0	0	0	617	
4	0	0	0	0	617	
5	0	0	0	0	618	
6	0	0	0	0	616	
7	0	0	0	0	617	
8	0	0	0	0	616	
9	0	0	0	0	616	
10	0	0	0	0	615	
11	0	0	0	0	615	
12	0	0	0	0	615	
13	0	0	0	0	615	
14	0	0	0	0	614	
15	0	0	0	0	614	
0	0	0	0	0	613	
1	0	0	0	0	614	
2	0	0	0	0	613	
3	0	0	0	0	612	
4	0	0	0	0	612	
5	0	0	0	0	611	
6	0	0	0	0	612	
7	0	0	0	0	612	
8	0	0	0	0	611	
9	0	0	0	0	610	
10	0	0	0	0	610	
11	0	0	0	0	611	
12	0	0	0	0	609	
13	0	0	0	0	609	
14	0	0	0	0	608	
15	0	0	0	0	608	
0	0	0	0	0	608	
1	0	0	0	0	607	
2	0	0	0	0	606	
3	0	0	0	0	607	
4	0	0	0	0	605	
5	0	0	0	0	606	
6	0	0	0	0	605	
7	0	0	0	0	604	
8	0	0	0	0	604	
9	0	0	0	0	603	
10	0	0	0	0	604	
11	0	0	0	0	604	
12	0	0	0	0	603	
13	0	0	0	0	604	
14	0	0	0	0	603	
15	0	0	0	0	603	
0	0	0	0	0	602	
1	0	0	0	0	602	
2	0	0	0	0	602	
3	0	0	0	0	601	
4	0	0	0	0	603	
5	0	0	0	0	602	
6	0	0	0	0	601	
7	0	0	0	0	602	
8	0	0	0	0	600	
9	0	0	0	0	601	
10	0	0	0	0	600	
11	0	0	0	0	600	
12	0	0	0	0	600	
13	0	0	0	0	600	
14	0	0	0	0	600	
15	0	0	0	0	600	
0	0	0	0	0	600	
1	0	0	0	0	600	
2	0	0	0	0	599	
3	0	0	0	0	599	
4	0	0	0	0	598	
5	0	0	0	0	598	
6	0	0	0	0	596	
7	0	0	0	0	596	
8	0	0	0	0	596	
9	0	0	0	0	595	
10	0	0	0	0	595	
11	0	0	0	0	594	
12	0	0	0	0	593	
13	0	0	0	0	593	
14	0	0	0	0	592	
15	0	0	0	0	592	
0	0	0	0	0	592	
1	0	0	0	0	590	
2	0	0	0	0	590	
3	0	0	0	0	590	
4	0	0	0	0	588	
5	0	0	0	0	589	
6	0	0	0	0	587	
7	0	0	0	0	588	
8	0	0	0	0	586	
9	0	0	0	0	585	
10	0	0	0	0	584	
11	0	0	0	0	583	
12	0	0	0	0	583	
13	0	0	0	0	581	
14	0	0	0	0	579	
15	0	0	0	0	578	
0	0	0	0	0	576	
1	0	0	0	0	576	
2	0	0	0	0	576	
3	0	0	0	0	574	
4	0	0	0	0	575	
5	0	0	0	0	573	
6	0	0	0	0	572	
7	0	0	0	0	571	
8	0	0	0	0	570	
9	0	0	0	0	570	
10	0	0	0	0	568	
11	0	0	0	0	568	
12	0	0	0	0	567	
13	0	0	0	0	566	
14	0	0	0	0	563	
15	0	0	0	0	562	
0	0	0	0	0	561	
1	0	0	0	0	559	
2	0	0	0	0	558	
3	0	0	0	0	557	
4	0	0	0	0	554	
5	0	0	0	0	553	
6	0	0	0	0	551	
7	0	0	0	0	550	
8	0	0	0	0	549	
9	0	0	0	0	546	
10	0	0	0	0	546	
11	0	0	0	0	543	
12	0	0	0	0	543	
13	0	0	0	0	542	
14	0	0	0	0	540	
15	0	0	0	0	539	
0	0	0	0	0	537	
1	0	0	0	0	536	
2	0	0	0	0	536	
3	0	0	0	0	533	
4	0	0	0	0	533	
5	0	0	0	0	531	
6	0	0	0	0	529	
7	0	0	0	0	527	
8	0	0	0	0	524	
9	0	0	0	0	523	
10	0	0	0	0	520	
11	0	0	0	0	517	
12	0	0	0	0	515	
13	0	0	0	0	512	
14	0	0	0	0	511	
15	0	0	0	0	507	
0	0	0	0	0	506	
1	0	0	0	0	504	
2	0	0	0	0	501	
3	0	0	0	0	499	
4	0	0	0	0	497	
5	0	0	0	0	494	
6	0	0	0	0	492	
7	0	0	0	0	489	
8	0	0	0	0	487	
9	0	0	0	0	484	
10	0	0	0	0	483	
11	0	0	0	0	481	
12	0	0	0	0	478	
13	0	0	0	0	477	
14	0	0	0	0	474	
15	0	0	0	0	472	
0	0	0	0	0	470	
1	0	0	0	0	469	
2	0	0	0	0	469	
3	0	0	0	0	468	
4	0	0	0	0	468	
5	0	0	0	0	467	
6	0	0	0	0	465	
7	0	0	0	0	466	
8	0	0	0	0	464	
9	0	0	0	0	464	
10	0	0	0	0	464	
11	0	0	0	0	463	
12	0	0	0	0	464	
13	0	0	0	0	463	
14	0	0	0	0	462	
15	0	0	0	0	462	
0	0	0	0	0	462	
1	0	0	0	0	462	
2	0	0	0	0	461	
3	0	0	0	0	461	
4	0	0	0	0	461	
5	0	0	0	0	460	
6	0	0	0	0	461	
7	0	0	0	0	460	
8	0	0	0	0	460	
9	0	0	0	0	461	
10	0	0	0	0	460	
11	0	0	0	0	461	
12	0	0	0	0	461	
13	0	0	0	0	460	
14	0	0	0	0	461	
15	0	0	0	0	460	
0	0	0	0	0	462	
1	0	0	0	0	461	
2	0	0	0	0	461	
3	0	0	0	0	462	
4	0	0	0	0	462	
5	0	0	0	0	463	
6	0	0	0	0	464	
7	0	0	0	0	465	
8	0	0	0	0	465	
9	0	0	0	0	466	
10	0	0	0	0	467	
11	0	0	0	0	467	
12	0	0	0	0	467	
13	0	0	0	0	468	
14	0	0	0	0	467	
15	0	0	0	0	468	
0	0	0	0	0	468	
1	0	0	0	0	468	
2	0	0	0	0	469	
3	0	0	0	0	468	
4	0	0	0	0	470	
5	0	0	0	0	469	
6	0	0	0	0	470	
7	0	0	0	0	470	
8	0	0	0	0	469	
9	0	0	0	0	470	
10	0	0	0	0	470	
11	0	0	0	0	470	
12	0	0	0	0	471	
13	0	0	0	0	470	
14	0	0	0	0	472	
15	0	0	0	0	470	
0	0	0	0	0	468	
1	0	0	0	0	465	
2	0	0	0	0	463	
3	0	0	0	0	461	
4	0	0	0	0	458	
5	0	0	0	0	454	
6	0	0	0	0	451	
7	0	0	0	0	447	
8	0	0	0	0	446	
9	0	0	0	0	442	
10	0	0	0	0	439	
11	0	0	0	0	435	
12	0	0	0	0	431	
13	0	0	0	0	429	
14	0	0	0	0	425	
15	0	0	0	0	422	
0	0	0	0	0	419	
1	0	0	0	0	414	
2	0	0	0	0	413	
3	0	0	0	0	408	
4	0	0	0	0	406	
5	0	0	0	0	402	
6	0	0	0	0	399	
7	0	0	0	0	397	
8	0	0	0	0	394	
9	0	0	0	0	391	
10	0	0	0	0	389	
11	0	0	0	0	385	
12	0	0	0	0	384	
13	0	0	0	0	381	
14	0	0	0	0	379	
15	0	0	0	0	376	
0	0	0	0	0	374	
1	0	0	0	0	374	
2	0	0	0	0	373	
3	0	0	0	0	371	
4	0	0	0	0	371	
5	0	0	0	0	369	
6	0	0	0	0	370	
7	0	0	0	0	369	
8	0	0	0	0	368	
9	0	0	0	0	367	
10	0	0	0	0	366	
11	0	0	0	0	366	
12	0	0	0	0	365	
13	0	0	0	0	364	
14	0	0	0	0	364	
15	0	0	0	0	361	
0	0	0	0	0	361	
1	0	0	0	0	359	
2	0	0	0	0	359	
3	0	0	0	0	358	
4	0	0	0	0	356	
5	0	0	0	0	356	
6	0	0	0	0	355	
7	0	0	0	0	353	
8	0	0	0	0	352	
9	0	0	0	0	350	
10	0	0	0	0	350	
11	0	0	0	0	348	
12	0	0	0	0	348	
13	0	0	0	0	347	
14	0	0	0	0	346	
15	0	0	0	0	349	
0	0	0	0	0	350	
1	0	0	0	0	353	
2	0	0	0	0	357	
3	0	0	0	0	360	
4	0	0	0	0	365	
5	0	0	0	0	369	
6	0	0	0	0	374	
7	0	0	0	0	379	
8	0	0	0	0	382	
9	0	0	0	0	388	
10	0	0	0	0	392	
11	0	0	0	0	397	
12	0	0	0	0	401	
13	0	0	0	0	406	
14	0	0	0	0	411	
15	0	0	0	0	413	
0	0	0	0	0	415	
1	0	0	0	0	417	
2	0	0	0	0	418	
3	0	0	0	0	420	
4	0	0	0	0	421	
5	0	0	0	0	421	
6	0	0	0	0	422	
7	0	0	0	0	422	
8	0	0	0	0	422	
9	0	0	0	0	422	
10	0	0	0	0	423	
11	0	0	0	0	423	
12	0	0	0	0	423	
13	0	0	0	0	423	
14	0	0	0	0	422	
15	0	0	0	0	424	
0	0	0	0	0	427	
1	0	0	0	0	431	
2	0	0	0	0	435	
3	0	0	0	0	438	
4	0	0	0	0	442	
5	0	0	0	0	447	
6	0	0	0	0	450	
7	0	0	0	0	456	
8	0	0	0	0	460	
9	0	0	0	0	465	
10	0	0	0	0	470	
11	0	0	0	0	474	
12	0	0	0	0	479	
13	0	0	0	0	484	
14	0	0	0	0	488	
15	0	0	0	0	494	
0	0	0	0	0	497	
1	0	0	0	0	503	
2	0	0	0	0	507	
3	0	0	0	0	511	
4	0	0	0	0	516	
5	0	0	0	0	519	
6	0	0	0	0	524	
7	0	0	0	0	529	
8	0	0	0	0	533	
9	0	0	0	0	539	
10	0	0	0	0	542	
11	0	0	0	0	546	
12	0	0	0	0	550	
13	0	0	0	0	554	
14	0	0	0	0	559	
15	0	0	0	0	562	
0	0	0	0	0	566	
1	0	0	0	0	569	
2	0	0	0	0	573	
3	0	0	0	0	576	
4	0	0	0	0	580	
5	0	0	0	0	585	
6	0	0	0	0	587	
7	0	0	0	0	591	
8	0	0	0	0	593	
9	0	0	0	0	597	
10	0	0	0	0	600	
11	0	0	0	0	604	
12	0	0	0	0	606	
13	0	0	0	0	611	
14	0	0	0	0	612	
15	0	0	0	0	616	
0	0	0	0	0	616	
1	0	0	0	0	618	
2	0	0	0	0	618	
3	0	0	0	0	618	
4	0	0	0	0	619	
5	0	0	0	0	618	
6	0	0	0	0	618	
7	0	0	0	0	619	
8	0	0	0	0	617	
9	0	0	0	0	619	
10	0	0	0	0	618	
11	0	0	0	0	617	
12	0	0	0	0	618	
13	0	0	0	0	617	
14	0	0	0	0	617	
15	0	0	0	0	617	
0	0	0	0	0	617	
1	0	0	0	0	617	
2	0	0	0	0	616	
3	0	0	0	0	617	
4	0	0	0	0	617	
5	0	0	0	0	616	
6	0	0	0	0	616	
7	0	0	0	0	615	
8	0	0	0	0	615	
9	0	0	0	0	615	
10	0	0	0	0	615	
11	0	0	0	0	614	
12	0	0	0	0	612	
13	0	0	0	0	614	
14	0	0	0	0	612	
15	0	0	0	0	612	
0	0	0	0	0	612	
1	0	0	0	0	610	
2	0	0	0	0	611	
3	0	0	0	0	610	
4	0	0	0	0	609	
5	0	0	0	0	610	
6	0	0	0	0	608	
7	0	0	0	0	609	
8	0	0	0	0	608	
9	0	0	0	0	607	
10	0	0	0	0	607	
11	0	0	0	0	605	
12	0	0	0	0	606	
13	0	0	0	0	605	
14	0	0	0	0	604	
15	0	0	0	0	604	
0	0	0	0	0	603	
1	0	0	0	0	604	
2	0	0	0	0	603	
3	0	0	0	0	603	
4	0	0	0	0	603	
5	0	0	0	0	602	
6	0	0	0	0	602	
7	0	0	0	0	603	
8	0	0	0	0	603	
9	0	0	0	0	602	
10	0	0	0	0	601	
11	0	0	0	0	603	
12	0	0	0	0	603	
13	0	0	0	0	603	
14	0	0	0	0	604	
15	0	0	0	0	603	
0	0	0	0	0	604	
1	0	0	0	0	603	
2	0	0	0	0	603	
3	0	0	0	0	603	
4	0	0	0	0	601	
5	0	0	0	0	603	
6	0	0	0	0	601	
7	0	0	0	0	601	
8	0	0	0	0	601	
9	0	0	0	0	600	
10	0	0	0	0	600	
11	0	0	0	0	599	
12	0	0	0	0	599	
13	0	0	0	0	599	
14	0	0	0	0	598	
15	0	0	0	0	598	
0	0	0	0	0	595	
1	0	0	0	0	595	
2	0	0	0	0	596	
3	0	0	0	0	594	
4	0	0	0	0	595	
5	0	0	0	0	594	
6	0	0	0	0	593	
7	0	0	0	0	592	
8	0	0	0	0	592	
9	0	0	0	0	592	
10	0	0	0	0	591	
11	0	0	0	0	590	
12	0	0	0	0	590	
13	0	0	0	0	589	
14	0	0	0	0	589	
15	0	0	0	0	588	
0	0	0	0	0	587	
1	0	0	0	0	586	
2	0	0	0	0	585	
3	0	0	0	0	584	
4	0	0	0	0	583	
5	0	0	0	0	581	
6	0	0	0	0	582	
7	0	0	0	0	579	
8	0	0	0	0	579	
9	0	0	0	0	577	
10	0	0	0	0	576	
11	0	0	0	0	574	
12	0	0	0	0	572	
13	0	0	0	0	572	
14	0	0	0	0	572	
15	0	0	0	0	570	
0	0	0	0	0	569	
1	0	0	0	0	568	
2	0	0	0	0	568	
3	0	0	0	0	567	
4	0	0	0	0	565	
5	0	0	0	0	565	
6	0	0	0	0	563	
7	0	0	0	0	563	
8	0	0	0	0	561	
9	0	0	0	0	560	
10	0	0	0	0	559	
11	0	0	0	0	556	
12	0	0	0	0	556	
13	0	0	0	0	554	
14	0	0	0	0	551	
15	0	0	0	0	550	
0	0	0	0	0	548	
1	0	0	0	0	547	
2	0	0	0	0	545	
3	0	0	0	0	544	
4	0	0	0	0	542	
5	0	0	0	0	540	
6	0	0	0	0	540	
7	0	0	0	0	538	
8	0	0	0	0	536	
9	0	0	0	0	536	
10	0	0	0	0	533	
11	0	0	0	0	533	
12	0	0	0	0	532	
13	0	0	0	0	530	
14	0	0	0	0	530	
15	0	0	0	0	527	
0	0	0	0	0	526	
1	0	0	0	0	523	
2	0	0	0	0	520	
3	0	0	0	0	519	
4	0	0	0	0	515	
5	0	0	0	0	513	
6	0	0	0	0	511	
7	0	0	0	0	509	
8	0	0	0	0	507	
9	0	0	0	0	503	
10	0	0	0	0	502	
11	0	0	0	0	497	
12	0	0	0	0	496	
13	0	0	0	0	494	
14	0	0	0	0	491	
15	0	0	0	0	490	
0	0	0	0	0	487	
1	0	0	0	0	484	
2	0	0	0	0	483	
3	0	0	0	0	480	
4	0	0	0	0	479	
5	0	0	0	0	476	
6	0	0	0	0	475	
7	0	0	0	0	473	
8	0	0	0	0	471	
9	0	0	0	0	471	
10	0	0	0	0	469	
11	0	0	0	0	467	
12	0	0	0	0	468	
13	0	0	0	0	467	
14	0	0	0	0	467	
15	0	0	0	0	467	
0	0	0	0	0	466	
1	0	0	0	0	466	
2	0	0	0	0	465	
3	0	0	0	0	465	
4	0	0	0	0	464	
5	0	0	0	0	463	
6	0	0	0	0	463	
7	0	0	0	0	461	
8	0	0	0	0	462	
9	0	0	0	0	461	
10	0	0	0	0	460	
11	0	0	0	0	460	
12	0	0	0	0	459	
13	0	0	0	0	460	
14	0	0	0	0	459	
15	0	0	0	0	459	
0	0	0	0	0	459	
1	0	0	0	0	458	
2	0	0	0	0	460	
3	0	0	0	0	459	
4	0	0	0	0	459	
5	0	0	0	0	459	
6	0	0	0	0	460	
7	0	0	0	0	461	
8	0	0	0	0	461	
9	0	0	0	0	461	
10	0	0	0	0	463	
11	0	0	0	0	462	
12	0	0	0	0	463	
13	0	0	0	0	463	
14	0	0	0	0	463	
15	0	0	0	0	464	
0	0	0	0	0	464	
1	0	0	0	0	465	
2	0	0	0	0	465	
3	0	0	0	0	465	
4	0	0	0	0	466	
5	0	0	0	0	465	
6	0	0	0	0	467	
7	0	0	0	0	467	
8	0	0	0	0	467	
9	0	0	0	0	468	
10	0	0	0	0	468	
11	0	0	0	0	468	
12	0	0	0	0	467	
13	0	0	0	0	469	
14	0	0	0	0	470	
15	0	0	0	0	469	
0	0	0	0	0	470	
1	0	0	0	0	470	
2	0	0	0	0	471	
3	0	0	0	0	470	
4	0	0	0	0	470	
5	0	0	0	0	472	
6	0	0	0	0	472	
7	0	0	0	0	469	
8	0	0	0	0	467	
9	0	0	0	0	465	
10	0	0	0	0	464	
11	0	0	0	0	460	
12	0	0	0	0	457	
13	0	0	0	0	453	
14	0	0	0	0	449	
15	0	0	0	0	447	
0	0	0	0	0	443	
1	0	0	0	0	439	
2	0	0	0	0	436	
3	0	0	0	0	432	
4	0	0	0	0	431	
5	0	0	0	0	427	
6	0	0	0	0	424	
7	0	0	0	0	419	
8	0	0	0	0	416	
9	0	0	0	0	415	
10	0	0	0	0	411	
11	0	0	0	0	408	
12	0	0	0	0	405	
13	0	0	0	0	401	
14	0	0	0	0	400	
15	0	0	0	0	397	
0	0	0	0	0	394	
1	0	0	0	0	391	
2	0	0	0	0	388	
3	0	0	0	0	386	
4	0	0	0	0	383	
5	0	0	0	0	380	
6	0	0	0	0	378	
7	0	0	0	0	376	
8	0	0	0	0	375	
9	0	0	0	0	373	
10	0	0	0	0	371	
11	0	0	0	0	370	
12	0	0	0	0	369	
13	0	0	0	0	368	
14	0	0	0	0	368	
15	0	0	0	0	368	
0	0	0	0	0	367	
1	0	0	0	0	366	
2	0	0	0	0	367	
3	0	0	0	0	365	
4	0	0	0	0	365	
5	0	0	0	0	364	
6	0	0	0	0	363	
7	0	0	0	0	363	
8	0	0	0	0	362	
9	0	0	0	0	361	
10	0	0	0	0	360	
11	0	0	0	0	358	
12	0	0	0	0	359	
13	0	0	0	0	357	
14	0	0	0	0	356	
15	0	0	0	0	355	
0	0	0	0	0	353	
1	0	0	0	0	352	
2	0	0	0	0	351	
3	0	0	0	0	349	
4	0	0	0	0	349	
5	0	0	0	0	348	
6	0	0	0	0	347	
7	0	0	0	0	348	
8	0	0	0	0	350	
9	0	0	0	0	354	
10	0	0	0	0	357	
11	0	0	0	0	362	
12	0	0	0	0	365	
13	0	0	0	0	369	
14	0	0	0	0	374	
15	0	0	0	0	378	
0	0	0	0	0	383	
1	0	0	0	0	387	
2	0	0	0	0	391	
3	0	0	0	0	396	
4	0	0	0	0	401	
5	0	0	0	0	406	
6	0	0	0	0	410	
7	0	0	0	0	412	
8	0	0	0	0	415	
9	0	0	0	0	416	
10	0	0	0	0	418	
11	0	0	0	0	418	
12	0	0	0	0	419	
13	0	0	0	0	420	
14	0	0	0	0	419	
15	0	0	0	0	420	
0	0	0	0	0	420	
1	0	0	0	0	420	
2	0	0	0	0	420	
3	0	0	0	0	419	
4	0	0	0	0	420	
5	0	0	0	0	420	
6	0	0	0	0	420	
7	0	0	0	0	423	
8	0	0	0	0	425	
9	0	0	0	0	430	
10	0	0	0	0	433	
11	0	0	0	0	437	
12	0	0	0	0	441	
13	0	0	0	0	445	
14	0	0	0	0	450	
15	0	0	0	0	454	
0	0	0	0	0	459	
1	0	0	0	0	464	
2	0	0	0	0	468	
3	0	0	0	0	473	
4	0	0	0	0	477	
5	0	0	0	0	482	
6	0	0	0	0	487	
7	0	0	0	0	492	
8	0	0	0	0	497	
9	0	0	0	0	502	
10	0	0	0	0	506	
11	0	0	0	0	511	
12	0	0	0	0	515	
13	0	0	0	0	520	
14	0	0	0	0	524	
15	0	0	0	0	528	
0	0	0	0	0	532	
1	0	0	0	0	536	
2	0	0	0	0	540	
3	0	0	0	0	545	
4	0	0	0	0	548	
5	0	0	0	0	553	
6	0	0	0	0	555	
7	0	0	0	0	560	
8	0	0	0	0	563	
9	0	0	0	0	568	
10	0	0	0	0	572	
11	0	0	0	0	575	
12	0	0	0	0	579	
13	0	0	0	0	583	
14	0	0	0	0	586	
15	0	0	0	0	590	
0	0	0	0	0	592	
1	0	0	0	0	598	
2	0	0	0	0	600	
3	0	0	0	0	603	
4	0	0	0	0	607	
5	0	0	0	0	609	
6	0	0	0	0	613	
7	0	0	0	0	613	
8	0	0	0	0	615	
9	0	0	0	0	617	
10	0	0	0	0	617	
11	0	0	0	0	618	
12	0	0	0	0	617	
13	0	0	0	0	618	
14	0	0	0	0	620	
15	0	0	0	0	619	
0	0	0	0	0	620	
1	0	0	0	0	619	
2	0	0	0	0	619	
3	0	0	0	0	619	
4	0	0	0	0	618	
5	0	0	0	0	619	
6	0	0	0	0	617	
7	0	0	0	0	617	
8	0	0	0	0	617	
9	0	0	0	0	616	
10	0	0	0	0	616	
11	0	0	0	0	615	
12	0	0	0	0	615	
13	0	0	0	0	615	
14	0	0	0	0	615	
15	0	0	0	0	616	
0	0	0	0	0	615	
1	0	0	0	0	614	
2	0	0	0	0	614	
3	0	0	0	0	612	
4	0	0	0	0	613	
5	0	0	0	0	612	
6	0	0	0	0	611	
7	0	0	0	0	612	
8	0	0	0	0	610	
9	0	0	0	0	611	
10	0	0	0	0	610	
11	0	0	0	0	610	
12	0	0	0	0	609	
13	0	0	0	0	608	
14	0	0	0	0	608	
15	0	0	0	0	606	
0	0	0	0	0	607	
1	0	0	0	0	607	
2	0	0	0	0	605	
3	0	0	0	0	606	
4	0	0	0	0	604	
5	0	0	0	0	604	
6	0	0	0	0	605	
7	0	0	0	0	604	
8	0	0	0	0	604	
9	0	0	0	0	603	
10	0	0	0	0	602	
11	0	0	0	0	603	
12	0	0	0	0	601	
13	0	0	0	0	602	
14	0	0	0	0	601	
15	0	0	0	0	602	
0	0	0	0	0	603	
1	0	0	0	0	602	
2	0	0	0	0	603	
3	0	0	0	0	602	
4	0	0	0	0	602	
5	0	0	0	0	603	
6	0	0	0	0	601	
7	0	0	0	0	602	
8	0	0	0	0	601	
9	0	0	0	0	601	
10	0	0	0	0	601	
11	0	0	0	0	600	
12	0	0	0	0	601	
13	0	0	0	0	600	
14	0	0	0	0	600	
15	0	0	0	0	599	
0	0	0	0	0	598	
1	0	0	0	0	600	
2	0	0	0	0	598	
3	0	0	0	0	598	
4	0	0	0	0	598	
5	0	0	0	0	597	
6	0	0	0	0	598	
7	0	0	0	0	597	
8	0	0	0	0	596	
9	0	0	0	0	596	
10	0	0	0	0	594	
11	0	0	0	0	594	
12	0	0	0	0	593	
13	0	0	0	0	592	
14	0	0	0	0	592	
15	0	0	0	0	591	
0	0	0	0	0	592	
1	0	0	0	0	591	
2	0	0	0	0	591	
3	0	0	0	0	591	
4	0	0	0	0	590	
5	0	0	0	0	590	
6	0	0	0	0	589	
7	0	0	0	0	588	
8	0	0	0	0	588	
9	0	0	0	0	585	
10	0	0	0	0	586	
11	0	0	0	0	584	
12	0	0	0	0	583	
13	0	0	0	0	581	
14	0	0	0	0	580	
15	0	0	0	0	580	
0	0	0	0	0	579	
1	0	0	0	0	577	
2	0	0	0	0	577	
3	0	0	0	0	574	
4	0	0	0	0	575	
5	0	0	0	0	574	
6	0	0	0	0	572	
7	0	0	0	0	572	
8	0	0	0	0	570	
9	0	0	0	0	570	
10	0	0	0	0	569	
11	0	0	0	0	568	
12	0	0	0	0	567	
13	0	0	0	0	566	
14	0	0	0	0	565	
15	0	0	0	0	564	
0	0	0	0	0	562	
1	0	0	0	0	561	
2	0	0	0	0	558	
3	0	0	0	0	558	
4	0	0	0	0	556	
5	0	0	0	0	554	
6	0	0	0	0	553	
7	0	0	0	0	550	
8	0	0	0	0	550	
9	0	0	0	0	548	
10	0	0	0	0	547	
11	0	0	0	0	545	
12	0	0	0	0	543	
13	0	0	0	0	543	
14	0	0	0	0	541	
15	0	0	0	0	540	
0	0	0	0	0	539	
1	0	0	0	0	537	
2	0	0	0	0	537	
3	0	0	0	0	535	
4	0	0	0	0	533	
5	0	0	0	0	533	
6	0	0	0	0	530	
7	0	0	0	0	529	
8	0	0	0	0	527	
9	0	0	0	0	524	
10	0	0	0	0	522	
11	0	0	0	0	518	
12	0	0	0	0	517	
13	0	0	0	0	514	
14	0	0	0	0	512	
15	0	0	0	0	510	
0	0	0	0	0	507	
1	0	0	0	0	505	
2	0	0	0	0	503	
3	0	0	0	0	500	
4	0	0	0	0	499	
5	0	0	0	0	496	
6	0	0	0	0	495	
7	0	0	0	0	491	
8	0	0	0	0	487	
9	0	0	0	0	485	
10	0	0	0	0	483	
11	0	0	0	0	481	
12	0	0	0	0	478	
13	0	0	0	0	476	
14	0	0	0	0	475	
15	0	0	0	0	473	
0	0	0	0	0	472	
1	0	0	0	0	472	
2	0	0	0	0	471	
3	0	0	0	0	470	
4	0	0	0	0	469	
5	0	0	0	0	469	
6	0	0	0	0	468	
7	0	0	0	0	467	
8	0	0	0	0	467	
9	0	0	0	0	465	
10	0	0	0	0	466	
11	0	0	0	0	465	
12	0	0	0	0	464	
13	0	0	0	0	464	
14	0	0	0	0	463	
15	0	0	0	0	463	
0	0	0	0	0	462	
1	0	0	0	0	461	
2	0	0	0	0	462	
3	0	0	0	0	460	
4	0	0	0	0	461	
5	0	0	0	0	460	
6	0	0	0	0	460	
7	0	0	0	0	459	
8	0	0	0	0	459	
9	0	0	0	0	460	
10	0	0	0	0	460	
11	0	0	0	0	461	
12	0	0	0	0	461	
13	0	0	0	0	460	
14	0	0	0	0	462	
15	0	0	0	0	461	
0	0	0	0	0	462	
1	0	0	0	0	463	
2	0	0	0	0	463	
3	0	0	0	0	464	
4	0	0	0	0	464	
5	0	0	0	0	464	
6	0	0	0	0	465	
7	0	0	0	0	464	
8	0	0	0	0	465	
9	0	0	0	0	465	
10	0	0	0	0	465	
11	0	0	0	0	466	
12	0	0	0	0	465	
13	0	0	0	0	466	
14	0	0	0	0	467	
15	0	0	0	0	467	
0	0	0	0	0	468	
1	0	0	0	0	468	
2	0	0	0	0	469	
3	0	0	0	0	469	
4	0	0	0	0	469	
5	0	0	0	0	470	
6	0	0	0	0	470	
7	0	0	0	0	471	
8	0	0	0	0	471	
9	0	0	0	0	472	
10	0	0	0	0	472	
11	0	0	0	0	471	
12	0	0	0	0	472	
13	0	0	0	0	472	
14	0	0	0	0	473	
15	0	0	0	0	471	
0	0	0	0	0	469	
1	0	0	0	0	467	
2	0	0	0	0	464	
3	0	0	0	0	462	
4	0	0	0	0	459	
5	0	0	0	0	454	
6	0	0	0	0	453	
7	0	0	0	0	449	
8	0	0	0	0	445	
9	0	0	0	0	441	
10	0	0	0	0	438	
11	0	0	0	0	435	
12	0	0	0	0	432	
13	0	0	0	0	428	
14	0	0	0	0	425	
15	0	0	0	0	421	
0	0	0	0	0	420	
1	0	0	0	0	416	
2	0	0	0	0	412	
3	0	0	0	0	409	
4	0	0	0	0	405	
5	0	0	0	0	403	
6	0	0	0	0	400	
7	0	0	0	0	396	
8	0	0	0	0	393	
9	0	0	0	0	390	
10	0	0	0	0	390	
11	0	0	0	0	385	
12	0	0	0	0	383	
13	0	0	0	0	380	
14	0	0	0	0	377	
15	0	0	0	0	376	
0	0	0	0	0	374	
1	0	0	0	0	372	
2	0	0	0	0	371	
3	0	0	0	0	369	
4	0	0	0	0	370	
5	0	0	0	0	368	
6	0	0	0	0	368	
7	0	0	0	0	367	
8	0	0	0	0	366	
9	0	0	0	0	366	
10	0	0	0	0	366	
11	0	0	0	0	365	
12	0	0	0	0	365	
13	0	0	0	0	364	
14	0	0	0	0	364	
15	0	0	0	0	363	
0	0	0	0	0	362	
1	0	0	0	0	361	
2	0	0	0	0	360	
3	0	0	0	0	359	
4	0	0	0	0	359	
5	0	0	0	0	357	
6	0	0	0	0	356	
7	0	0	0	0	354	
8	0	0	0	0	354	
9	0	0	0	0	352	
10	0	0	0	0	351	
11	0	0	0	0	350	
12	0	0	0	0	348	
13	0	0	0	0	348	
14	0	0	0	0	347	
15	0	0	0	0	348	
0	0	0	0	0	351	
1	0	0	0	0	353	
2	0	0	0	0	358	
3	0	0	0	0	361	
4	0	0	0	0	365	
5	0	0	0	0	369	
6	0	0	0	0	372	
7	0	0	0	0	378	
8	0	0	0	0	382	
9	0	0	0	0	387	
10	0	0	0	0	391	
11	0	0	0	0	396	
12	0	0	0	0	401	
13	0	0	0	0	405	
14	0	0	0	0	409	
15	0	0	0	0	412	
0	0	0	0	0	414	
1	0	0	0	0	416	
2	0	0	0	0	417	
3	0	0	0	0	417	
4	0	0	0	0	418	
5	0	0	0	0	418	
6	0	0	0	0	419	
7	0	0	0	0	419	
8	0	0	0	0	419	
9	0	0	0	0	420	
10	0	0	0	0	419	
11	0	0	0	0	420	
12	0	0	0	0	421	
13	0	0	0	0	420	
14	0	0	0	0	422	
15	0	0	0	0	424	
0	0	0	0	0	427	
1	0	0	0	0	431	
2	0	0	0	0	434	
3	0	0	0	0	438	
4	0	0	0	0	441	
5	0	0	0	0	448	
6	0	0	0	0	451	
7	0	0	0	0	455	
8	0	0	0	0	460	
9	0	0	0	0	464	
10	0	0	0	0	469	
11	0	0	0	0	474	
12	0	0	0	0	478	
13	0	0	0	0	483	
14	0	0	0	0	487	
15	0	0	0	0	492	
0	0	0	0	0	495	
1	0	0	0	0	500	
2	0	0	0	0	506	
3	0	0	0	0	510	
4	0	0	0	0	515	
5	0	0	0	0	519	
6	0	0	0	0	523	
7	0	0	0	0	529	
8	0	0	0	0	532	
9	0	0	0	0	537	
10	0	0	0	0	541	
11	0	0	0	0	545	
12	0	0	0	0	550	
13	0	0	0	0	553	
14	0	0	0	0	558	
15	0	0	0	0	561	
0	0	0	0	0	565	
1	0	0	0	0	569	
2	0	0	0	0	572	
3	0	0	0	0	577	
4	0	0	0	0	579	
5	0	0	0	0	583	
6	0	0	0	0	586	
7	0	0	0	0	589	
8	0	0	0	0	593	
9	0	0	0	0	596	
10	0	0	0	0	599	
11	0	0	0	0	603	
12	0	0	0	0	606	
13	0	0	0	0	611	
14	0	0	0	0	612	
15	0	0	0	0	615	
0	0	0	0	0	616	
1	0	0	0	0	616	
2	0	0	0	0	618	
3	0	0	0	0	618	
4	0	0	0	0	619	
5	0	0	0	0	619	
6	0	0	0	0	618	
7	0	0	0	0	620	
8	0	0	0	0	619	
9	0	0	0	0	618	
10	0	0	0	0	619	
11	0	0	0	0	617	
12	0	0	0	0	618	
13	0	0	0	0	617	
14	0	0	0	0	617	
15	0	0	0	0	617	
0	0	0	0	0	615	
1	0	0	0	0	616	
2	0	0	0	0	615	
3	0	0	0	0	615	
4	0	0	0	0	615	
5	0	0	0	0	615	
6	0	0	0	0	616	
7	0	0	0	0	615	
8	0	0	0	0	614	
9	0	0	0	0	615	
10	0	0	0	0	613	
11	0	0	0	0	614	
12	0	0	0	0	613	
13	0	0	0	0	612	
14	0	0	0	0	612	
15	0	0	0	0	611	
0	0	0	0	0	611	
1	0	0	0	0	611	
2	0	0	0	0	610	
3	0	0	0	0	609	
4	0	0	0	0	608	
5	0	0	0	0	608	
6	0	0	0	0	608	
7	0	0	0	0	608	
8	0	0	0	0	607	
9	0	0	0	0	606	
10	0	0	0	0	607	
11	0	0	0	0	606	
12	0	0	0	0	605	
13	0	0	0	0	605	
14	0	0	0	0	604	
15	0	0	0	0	605	
0	0	0	0	0	604	
1	0	0	0	0	603	
2	0	0	0	0	603	
3	0	0	0	0	603	
4	0	0	0	0	604	
5	0	0	0	0	604	
6	0	0	0	0	603	
7	0	0	0	0	603	
8	0	0	0	0	603	
9	0	0	0	0	603	
10	0	0	0	0	602	
11	0	0	0	0	602	
12	0	0	0	0	602	
13	0	0	0	0	601	
14	0	0	0	0	601	
15	0	0	0	0	600	
0	0	0	0	0	601	
1	0	0	0	0	601	
2	0	0	0	0	600	
3	0	0	0	0	601	
4	0	0	0	0	601	
5	0	0	0	0	601	
6	0	0	0	0	600	
7	0	0	0	0	600	
8	0	0	0	0	601	
9	0	0	0	0	600	
10	0	0	0	0	600	
11	0	0	0	0	600	
12	0	0	0	0	598	
13	0	0	0	0	599	
14	0	0	0	0	597	
15	0	0	0	0	596	
0	0	0	0	0	596	
1	0	0	0	0	595	
2	0	0	0	0	596	
3	0	0	0	0	595	
4	0	0	0	0	595	
5	0	0	0	0	595	
6	0	0	0	0	593	
7	0	0	0	0	593	
8	0	0	0	0	592	
9	0	0	0	0	591	
10	0	0	0	0	591	
11	0	0	0	0	589	
12	0	0	0	0	590	
13	0	0	0	0	588	
14	0	0	0	0	588	
15	0	0	0	0	587	
0	0	0	0	0	586	
1	0	0	0	0	586	
2	0	0	0	0	584	
3	0	0	0	0	583	
4	0	0	0	0	582	
5	0	0	0	0	580	
6	0	0	0	0	581	
7	0	0	0	0	579	
8	0	0	0	0	578	
9	0	0	0	0	577	
10	0	0	0	0	575	
11	0	0	0	0	576	
12	0	0	0	0	572	
13	0	0	0	0	572	
14	0	0	0	0	572	
15	0	0	0	0	570	
0	0	0	0	0	569	
1	0	0	0	0	568	
2	0	0	0	0	567	
3	0	0	0	0	566	
4	0	0	0	0	563	
5	0	0	0	0	563	
6	0	0	0	0	562	
7	0	0	0	0	560	
8	0	0	0	0	560	
9	0	0	0	0	557	
10	0	0	0	0	557	
11	0	0	0	0	555	
12	0	0	0	0	553	
13	0	0	0	0	552	
14	0	0	0	0	551	
15	0	0	0	0	550	
0	0	0	0	0	548	
1	0	0	0	0	547	
2	0	0	0	0	546	
3	0	0	0	0	543	
4	0	0	0	0	543	
5	0	0	0	0	541	
6	0	0	0	0	540	
7	0	0	0	0	539	
8	0	0	0	0	537	
9	0	0	0	0	537	
10	0	0	0	0	534	
11	0	0	0	0	533	
12	0	0	0	0	532	
13	0	0	0	0	530	
14	0	0	0	0	529	
15	0	0	0	0	527	
0	0	0	0	0	526	
1	0	0	0	0	523	
2	0	0	0	0	520	
3	0	0	0	0	519	
4	0	0	0	0	517	
5	0	0	0	0	513	
6	0	0	0	0	511	
7	0	0	0	0	507	
8	0	0	0	0	507	
9	0	0	0	0	504	
10	0	0	0	0	502	
11	0	0	0	0	500	
12	0	0	0	0	496	
13	0	0	0	0	495	
14	0	0	0	0	492	
15	0	0	0	0	489	
0	0	0	0	0	488	
1	0	0	0	0	485	
2	0	0	0	0	483	
3	0	0	0	0	481	
4	0	0	0	0	479	
5	0	0	0	0	476	
6	0	0	0	0	474	
7	0	0	0	0	473	
8	0	0	0	0	472	
9	0	0	0	0	470	
10	0	0	0	0	470	
11	0	0	0	0	468	
12	0	0	0	0	468	
13	0	0	0	0	468	
14	0	0	0	0	467	
15	0	0	0	0	467	
0	0	0	0	0	466	
1	0	0	0	0	466	
2	0	0	0	0	465	
3	0	0	0	0	465	
4	0	0	0	0	464	
5	0	0	0	0	464	
6	0	0	0	0	464	
7	0	0	0	0	463	
8	0	0	0	0	463	
9	0	0	0	0	463	
10	0	0	0	0	461	
11	0	0	0	0	461	
12	0	0	0	0	461	
13	0	0	0	0	460	
14	0	0	0	0	460	
15	0	0	0	0	460	
0	0	0	0	0	461	
1	0	0	0	0	461	
2	0	0	0	0	461	
3	0	0	0	0	461	
4	0	0	0	0	461	
5	0	0	0	0	461	
6	0	0	0	0	461	
7	0	0	0	0	461	
8	0	0	0	0	462	
9	0	0	0	0	462	
10	0	0	0	0	464	
11	0	0	0	0	463	
12	0	0	0	0	464	
13	0	0	0	0	464	
14	0	0	0	0	464	
15	0	0	0	0	465	
0	0	0	0	0	465	
1	0	0	0	0	464	
2	0	0	0	0	465	
3	0	0	0	0	465	
4	0	0	0	0	467	
5	0	0	0	0	467	
6	0	0	0	0	467	
7	0	0	0	0	467	
8	0	0	0	0	467	
9	0	0	0	0	469	
10	0	0	0	0	470	
11	0	0	0	0	470	
12	0	0	0	0	470	
13	0	0	0	0	469	
14	0	0	0	0	471	
15	0	0	0	0	471	
0	0	0	0	0	472	
1	0	0	0	0	472	
2	0	0	0	0	472	
3	0	0	0	0	473	
4	0	0	0	0	472	
5	0	0	0	0	473	
6	0	0	0	0	472	
7	0	0	0	0	471	
8	0	0	0	0	470	
9	0	0	0	0	467	
10	0	0	0	0	464	
11	0	0	0	0	460	
12	0	0	0	0	456	
13	0	0	0	0	454	
14	0	0	0	0	451	
15	0	0	0	0	447	
0	0	0	0	0	444	
1	0	0	0	0	440	
2	0	0	0	0	438	
3	0	0	0	0	434	
4	0	0	0	0	430	
5	0	0	0	0	427	
6	0	0	0	0	424	
7	0	0	0	0	421	
8	0	0	0	0	418	
9	0	0	0	0	414	
10	0	0	0	0	411	
11	0	0	0	0	407	
12	0	0	0	0	406	
13	0	0	0	0	401	
14	0	0	0	0	399	
15	0	0	0	0	396	
0	0	0	0	0	393	
1	0	0	0	0	391	
2	0	0	0	0	388	
3	0	0	0	0	385	
4	0	0	0	0	382	
5	0	0	0	0	379	
6	0	0	0	0	378	
7	0	0	0	0	376	
8	0	0	0	0	375	
9	0	0	0	0	372	
10	0	0	0	0	371	
11	0	0	0	0	370	
12	0	0	0	0	369	
13	0	0	0	0	368	
14	0	0	0	0	368	
15	0	0	0	0	366	
0	0	0	0	0	367	
1	0	0	0	0	366	
2	0	0	0	0	366	
3	0	0	0	0	365	
4	0	0	0	0	364	
5	0	0	0	0	365	
6	0	0	0	0	364	
7	0	0	0	0	364	
8	0	0	0	0	363	
9	0	0	0	0	361	
10	0	0	0	0	361	
11	0	0	0	0	360	
12	0	0	0	0	359	
13	0	0	0	0	358	
14	0	0	0	0	357	
15	0	0	0	0	356	
0	0	0	0	0	355	
1	0	0	0	0	354	
2	0	0	0	0	353	
3	0	0	0	0	352	
4	0	0	0	0	352	
5	0	0	0	0	350	
6	0	0	0	0	349	
7	0	0	0	0	350	
8	0	0	0	0	351	
9	0	0	0	0	355	
10	0	0	0	0	357	
11	0	0	0	0	361	
12	0	0	0	0	365	
13	0	0	0	0	368	
14	0	0	0	0	373	
15	0	0	0	0	378	
0	0	0	0	0	383	
1	0	0	0	0	387	
2	0	0	0	0	391	
3	0	0	0	0	397	
4	0	0	0	0	401	
5	0	0	0	0	406	
6	0	0	0	0	411	
7	0	0	0	0	413	
8	0	0	0	0	416	
9	0	0	0	0	417	
10	0	0	0	0	418	
11	0	0	0	0	419	
12	0	0	0	0	419	
13	0	0	0	0	420	
14	0	0	0	0	421	
15	0	0	0	0	420	
0	0	0	0	0	421	
1	0	0	0	0	421	
2	0	0	0	0	422	
3	0	0	0	0	422	
4	0	0	0	0	422	
5	0	0	0	0	422	
6	0	0	0	0	422	
7	0	0	0	0	425	
8	0	0	0	0	427	
9	0	0	0	0	430	
10	0	0	0	0	434	
11	0	0	0	0	438	
12	0	0	0	0	443	
13	0	0	0	0	448	
14	0	0	0	0	452	
15	0	0	0	0	457	
0	0	0	0	0	461	
1	0	0	0	0	467	
2	0	0	0	0	470	
3	0	0	0	0	475	
4	0	0	0	0	479	
5	0	0	0	0	484	
6	0	0	0	0	488	
7	0	0	0	0	493	
8	0	0	0	0	496	
9	0	0	0	0	502	
10	0	0	0	0	506	
11	0	0	0	0	511	
12	0	0	0	0	515	
13	0	0	0	0	520	
14	0	0	0	0	525	
15	0	0	0	0	528	
0	0	0	0	0	533	
1	0	0	0	0	537	
2	0	0	0	0	540	
3	0	0	0	0	545	
4	0	0	0	0	548	
5	0	0	0	0	553	
6	0	0	0	0	556	
7	0	0	0	0	560	
8	0	0	0	0	563	
9	0	0	0	0	568	
10	0	0	0	0	572	
11	0	0	0	0	576	
12	0	0	0	0	580	
13	0	0	0	0	583	
14	0	0	0	0	586	
15	0	0	0	0	591	
0	0	0	0	0	593	
1	0	0	0	0	596	
2	0	0	0	0	600	
3	0	0	0	0	603	
4	0	0	0	0	607	
5	0	0	0	0	609	
6	0	0	0	0	611	
7	0	0	0	0	614	
8	0	0	0	0	614	
9	0	0	0	0	617	
10	0	0	0	0	616	
11	0	0	0	0	617	
12	0	0	0	0	618	
13	0	0	0	0	617	
14	0	0	0	0	618	
15	0	0	0	0	617	
0	0	0	0	0	617	
1	0	0	0	0	619	
2	0	0	0	0	618	
3	0	0	0	0	619	
4	0	0	0	0	618	
5	0	0	0	0	617	
6	0	0	0	0	617	
7	0	0	0	0	617	
8	0	0	0	0	616	
9	0	0	0	0	616	
10	0	0	0	0	614	
11	0	0	0	0	615	
12	0	0	0	0	613	
13	0	0	0	0	614	
14	0	0	0	0	613	
15	0	0	0	0	614	
0	0	0	0	0	612	
1	0	0	0	0	612	
2	0	0	0	0	613	
3	0	0	0	0	612	
4	0	0	0	0	611	
5	0	0	0	0	611	
6	0	0	0	0	610	
7	0	0	0	0	611	
8	0	0	0	0	610	
9	0	0	0	0	609	
10	0	0	0	0	609	
11	0	0	0	0	608	
12	0	0	0	0	608	
13	0	0	0	0	608	
14	0	0	0	0	607	
15	0	0	0	0	608	
0	0	0	0	0	606	
1	0	0	0	0	607	
2	0	0	0	0	605	
3	0	0	0	0	604	
4	0	0	0	0	603	
5	0	0	0	0	602	
6	0	0	0	0	604	
7	0	0	0	0	603	
8	0	0	0	0	603	
9	0	0	0	0	602	
10	0	0	0	0	601	
11	0	0	0	0	601	
12	0	0	0	0	601	
13	0	0	0	0	600	
14	0	0	0	0	601	
15	0	0	0	0	600	
0	0	0	0	0	600	
1	0	0	0	0	600	
2	0	0	0	0	601	
3	0	0	0	0	601	
4	0	0	0	0	600	
5	0	0	0	0	600	
6	0	0	0	0	600	
7	0	0	0	0	600	
8	0	0	0	0	600	
9	0	0	0	0	600	
10	0	0	0	0	600	
11	0	0	0	0	600	
12	0	0	0	0	600	
13	0	0	0	0	600	
14	0	0	0	0	599	
15	0	0	0	0	600	
0	0	0	0	0	599	
1	0	0	0	0	599	
2	0	0	0	0	599	
3	0	0	0	0	598	
4	0	0	0	0	598	
5	0	0	0	0	597	
6	0	0	0	0	596	
7	0	0	0	0	596	
8	0	0	0	0	594	
9	0	0	0	0	595	
10	0	0	0	0	595	
11	0	0	0	0	593	
12	0	0	0	0	592	
13	0	0	0	0	591	
14	0	0	0	0	592	
15	0	0	0	0	591	
0	0	0	0	0	591	
1	0	0	0	0	591	
2	0	0	0	0	590	
3	0	0	0	0	590	
4	0	0	0	0	589	
5	0	0	0	0	588	
6	0	0	0	0	588	
7	0	0	0	0	586	
8	0	0	0	0	587	
9	0	0	0	0	586	
10	0	0	0	0	585	
11	0	0	0	0	585	
12	0	0	0	0	583	
13	0	0	0	0	583	
14	0	0	0	0	580	
15	0	0	0	0	579	
0	0	0	0	0	579	
1	0	0	0	0	577	
2	0	0	0	0	576	
3	0	0	0	0	575	
4	0	0	0	0	573	
5	0	0	0	0	573	
6	0	0	0	0	570	
7	0	0	0	0	570	
8	0	0	0	0	569	
9	0	0	0	0	568	
10	0	0	0	0	568	
11	0	0	0	0	565	
12	0	0	0	0	566	
13	0	0	0	0	564	
14	0	0	0	0	563	
15	0	0	0	0	562	
0	0	0	0	0	560	
1	0	0	0	0	559	
2	0	0	0	0	557	
3	0	0	0	0	556	
4	0	0	0	0	554	
5	0	0	0	0	552	
6	0	0	0	0	551	
7	0	0	0	0	551	
8	0	0	0	0	548	
9	0	0	0	0	548	
10	0	0	0	0	545	
11	0	0	0	0	544	
12	0	0	0	0	543	
13	0	0	0	0	541	
14	0	0	0	0	539	
15	0	0	0	0	537	
0	0	0	0	0	536	
1	0	0	0	0	534	
2	0	0	0	0	533	
3	0	0	0	0	532	
4	0	0	0	0	530	
5	0	0	0	0	529	
6	0	0	0	0	528	
7	0	0	0	0	527	
8	0	0	0	0	524	
9	0	0	0	0	520	
10	0	0	0	0	521	
11	0	0	0	0	518	
12	0	0	0	0	515	
13	0	0	0	0	513	
14	0	0	0	0	510	
15	0	0	0	0	509	
0	0	0	0	0	506	
1	0	0	0	0	504	
2	0	0	0	0	501	
3	0	0	0	0	498	
4	0	0	0	0	497	
5	0	0	0	0	494	
6	0	0	0	0	491	
7	0	0	0	0	490	
8	0	0	0	0	487	
9	0	0	0	0	485	
10	0	0	0	0	483	
11	0	0	0	0	480	
12	0	0	0	0	478	
13	0	0	0	0	476	
14	0	0	0	0	476	
15	0	0	0	0	474	
0	0	0	0	0	472	
1	0	0	0	0	471	
2	0	0	0	0	469	
3	0	0	0	0	470	
4	0	0	0	0	469	
5	0	0	0	0	468	
6	0	0	0	0	468	
7	0	0	0	0	467	
8	0	0	0	0	467	
9	0	0	0	0	466	
10	0	0	0	0	466	
11	0	0	0	0	465	
12	0	0	0	0	464	
13	0	0	0	0	464	
14	0	0	0	0	464	
15	0	0	0	0	463	
0	0	0	0	0	463	
1	0	0	0	0	461	
2	0	0	0	0	462	
3	0	0	0	0	461	
4	0	0	0	0	461	
5	0	0	0	0	460	
6	0	0	0	0	459	
7	0	0	0	0	460	
8	0	0	0	0	459	
9	0	0	0	0	459	
10	0	0	0	0	460	
11	0	0	0	0	460	
12	0	0	0	0	461	
13	0	0	0	0	461	
14	0	0	0	0	462	
15	0	0	0	0	462	
0	0	0	0	0	461	
1	0	0	0	0	462	
2	0	0	0	0	463	
3	0	0	0	0	463	
4	0	0	0	0	463	
5	0	0	0	0	463	
6	0	0	0	0	464	
7	0	0	0	0	464	
8	0	0	0	0	465	
9	0	0	0	0	464	
10	0	0	0	0	465	
11	0	0	0	0	466	
12	0	0	0	0	466	
13	0	0	0	0	466	
14	0	0	0	0	467	
15	0	0	0	0	467	
0	0	0	0	0	469	
1	0	0	0	0	469	
2	0	0	0	0	470	
3	0	0	0	0	470	
4	0	0	0	0	469	
5	0	0	0	0	471	
6	0	0	0	0	470	
7	0	0	0	0	471	
8	0	0	0	0	471	
9	0	0	0	0	471	
10	0	0	0	0	472	
11	0	0	0	0	472	
12	0	0	0	0	472	
13	0	0	0	0	472	
14	0	0	0	0	472	
15	0	0	0	0	472	
0	0	0	0	0	469	
1	0	0	0	0	466	
2	0	0	0	0	463	
3	0	0	0	0	459	
4	0	0	0	0	458	
5	0	0	0	0	454	
6	0	0	0	0	451	
7	0	0	0	0	448	
8	0	0	0	0	444	
9	0	0	0	0	441	
10	0	0	0	0	439	
11	0	0	0	0	434	
12	0	0	0	0	431	
13	0	0	0	0	427	
14	0	0	0	0	425	
15	0	0	0	0	422	
0	0	0	0	0	418	
1	0	0	0	0	414	
2	0	0	0	0	411	
3	0	0	0	0	409	
4	0	0	0	0	406	
5	0	0	0	0	402	
6	0	0	0	0	399	
7	0	0	0	0	395	
8	0	0	0	0	394	
9	0	0	0	0	391	
10	0	0	0	0	388	
11	0	0	0	0	385	
12	0	0	0	0	382	
13	0	0	0	0	380	
14	0	0	0	0	377	
15	0	0	0	0	376	
0	0	0	0	0	375	
1	0	0	0	0	374	
2	0	0	0	0	374	
3	0	0	0	0	373	
4	0	0	0	0	372	
5	0	0	0	0	371	
6	0	0	0	0	369	
7	0	0	0	0	369	
8	0	0	0	0	367	
9	0	0	0	0	367	
10	0	0	0	0	366	
11	0	0	0	0	365	
12	0	0	0	0	366	
13	0	0	0	0	365	
14	0	0	0	0	364	
15	0	0	0	0	363	
0	0	0	0	0	362	
1	0	0	0	0	362	
2	0	0	0	0	360	
3	0	0	0	0	359	
4	0	0	0	0	358	
5	0	0	0	0	356	
6	0	0	0	0	355	
7	0	0	0	0	354	
8	0	0	0	0	353	
9	0	0	0	0	352	
10	0	0	0	0	349	
11	0	0	0	0	349	
12	0	0	0	0	348	
13	0	0	0	0	346	
14	0	0	0	0	346	
15	0	0	0	0	348	
0	0	0	0	0	350	
1	0	0	0	0	353	
2	0	0	0	0	355	
3	0	0	0	0	359	
4	0	0	0	0	363	
5	0	0	0	0	368	
6	0	0	0	0	372	
7	0	0	0	0	377	
8	0	0	0	0	382	
9	0	0	0	0	386	
10	0	0	0	0	391	
11	0	0	0	0	396	
12	0	0	0	0	400	
13	0	0	0	0	406	
14	0	0	0	0	409	
15	0	0	0	0	413	
0	0	0	0	0	415	
1	0	0	0	0	416	
2	0	0	0	0	417	
3	0	0	0	0	417	
4	0	0	0	0	419	
5	0	0	0	0	419	
6	0	0	0	0	419	
7	0	0	0	0	419	
8	0	0	0	0	418	
9	0	0	0	0	419	
10	0	0	0	0	419	
11	0	0	0	0	419	
12	0	0	0	0	420	
13	0	0	0	0	420	
14	0	0	0	0	421	
15	0	0	0	0	423	
0	0	0	0	0	426	
1	0	0	0	0	430	
2	0	0	0	0	433	
3	0	0	0	0	439	
4	0	0	0	0	442	
5	0	0	0	0	447	
6	0	0	0	0	452	
7	0	0	0	0	456	
8	0	0	0	0	461	
9	0	0	0	0	465	
10	0	0	0	0	469	
11	0	0	0	0	475	
12	0	0	0	0	479	
13	0	0	0	0	484	
14	0	0	0	0	487	
15	0	0	0	0	493	
0	0	0	0	0	497	
1	0	0	0	0	502	
2	0	0	0	0	507	
3	0	0	0	0	512	
4	0	0	0	0	516	
5	0	0	0	0	520	
6	0	0	0	0	524	
7	0	0	0	0	529	
8	0	0	0	0	532	
9	0	0	0	0	537	
10	0	0	0	0	541	
11	0	0	0	0	546	
12	0	0	0	0	551	
13	0	0	0	0	555	
14	0	0	0	0	559	
15	0	0	0	0	563	
0	0	0	0	0	566	
1	0	0	0	0	571	
2	0	0	0	0	574	
3	0	0	0	0	576	
4	0	0	0	0	581	
5	0	0	0	0	583	
6	0	0	0	0	587	
7	0	0	0	0	590	
8	0	0	0	0	592	
9	0	0	0	0	597	
10	0	0	0	0	599	
11	0	0	0	0	604	
12	0	0	0	0	606	
13	0	0	0	0	610	
14	0	0	0	0	614	
15	0	0	0	0	614	
0	0	0	0	0	617	
1	0	0	0	0	617	
2	0	0	0	0	618	
3	0	0	0	0	618	
4	0	0	0	0	618	
5	0	0	0	0	620	
6	0	0	0	0	619	
7	0	0	0	0	620	
8	0	0	0	0	620	
9	0	0	0	0	620	
10	0	0	0	0	620	
11	0	0	0	0	620	
12	0	0	0	0	619	
13	0	0	0	0	620	
14	0	0	0	0	618	
15	0	0	0	0	619	
0	0	0	0	0	617	
1	0	0	0	0	617	
2	0	0	0	0	618	
3	0	0	0	0	616	
4	0	0	0	0	617	
5	0	0	0	0	616	
6	0	0	0	0	616	
7	0	0	0	0	615	
8	0	0	0	0	615	
9	0	0	0	0	615	
10	0	0	0	0	614	
11	0	0	0	0	613	
12	0	0	0	0	612	
13	0	0	0	0	611	
14	0	0	0	0	612	
15	0	0	0	0	611	
0	0	0	0	0	611	
1	0	0	0	0	611	
2	0	0	0	0	610	
3	0	0	0	0	611	
4	0	0	0	0	609	
5	0	0	0	0	609	
6	0	0	0	0	609	
7	0	0	0	0	608	
8	0	0	0	0	608	
9	0	0	0	0	607	
10	0	0	0	0	606	
11	0	0	0	0	605	
12	0	0	0	0	604	
13	0	0	0	0	605	
14	0	0	0	0	603	
15	0	0	0	0	603	
0	0	0	0	0	603	
1	0	0	0	0	601	
2	0	0	0	0	602	
3	0	0	0	0	601	
4	0	0	0	0	601	
5	0	0	0	0	602	
6	0	0	0	0	601	
7	0	0	0	0	602	
8	0	0	0	0	601	
9	0	0	0	0	602	
10	0	0	0	0	602	
11	0	0	0	0	600	
12	0	0	0	0	602	
13	0	0	0	0	600	
14	0	0	0	0	600	
15	0	0	0	0	601	
0	0	0	0	0	600	
1	0	0	0	0	601	
2	0	0	0	0	601	
3	0	0	0	0	600	
4	0	0	0	0	601	
5	0	0	0	0	600	
6	0	0	0	0	601	
7	0	0	0	0	601	
8	0	0	0	0	600	
9	0	0	0	0	600	
10	0	0	0	0	598	
11	0	0	0	0	599	
12	0	0	0	0	597	
13	0	0	0	0	596	
14	0	0	0	0	596	
15	0	0	0	0	594	
0	0	0	0	0	595	
1	0	0	0	0	594	
2	0	0	0	0	593	
3	0	0	0	0	594	
4	0	0	0	0	592	
5	0	0	0	0	593	
6	0	0	0	0	592	
7	0	0	0	0	592	
8	0	0	0	0	591	
9	0	0	0	0	590	
10	0	0	0	0	591	
11	0	0	0	0	590	
12	0	0	0	0	589	
13	0	0	0	0	589	
14	0	0	0	0	588	
15	0	0	0	0	589	
0	0	0	0	0	588	
1	0	0	0	0	587	
2	0	0	0	0	586	
3	0	0	0	0	584	
4	0	0	0	0	584	
5	0	0	0	0	582	
6	0	0	0	0	581	
7	0	0	0	0	580	
8	0	0	0	0	579	
9	0	0	0	0	579	
10	0	0	0	0	577	
11	0	0	0	0	576	
12	0	0	0	0	575	
13	0	0	0	0	573	
14	0	0	0	0	573	
15	0	0	0	0	571	
0	0	0	0	0	570	
1	0	0	0	0	568	
2	0	0	0	0	566	
3	0	0	0	0	566	
4	0	0	0	0	564	
5	0	0	0	0	564	
6	0	0	0	0	563	
7	0	0	0	0	560	
8	0	0	0	0	560	
9	0	0	0	0	557	
10	0	0	0	0	556	
11	0	0	0	0	556	
12	0	0	0	0	553	
13	0	0	0	0	554	
14	0	0	0	0	552	
15	0	0	0	0	551	
0	0	0	0	0	549	
1	0	0	0	0	547	
2	0	0	0	0	547	
3	0	0	0	0	544	
4	0	0	0	0	543	
5	0	0	0	0	542	
6	0	0	0	0	540	
7	0	0	0	0	540	
8	0	0	0	0	538	
9	0	0	0	0	536	
10	0	0	0	0	536	
11	0	0	0	0	533	
12	0	0	0	0	532	
13	0	0	0	0	531	
14	0	0	0	0	529	
15	0	0	0	0	528	
0	0	0	0	0	524	
1	0	0	0	0	524	
2	0	0	0	0	521	
3	0	0	0	0	518	
4	0	0	0	0	516	
5	0	0	0	0	512	
6	0	0	0	0	512	
7	0	0	0	0	508	
8	0	0	0	0	507	
9	0	0	0	0	504	
10	0	0	0	0	502	
11	0	0	0	0	501	
12	0	0	0	0	498	
13	0	0	0	0	495	
14	0	0	0	0	492	
15	0	0	0	0	489	
0	0	0	0	0	487	
1	0	0	0	0	485	
2	0	0	0	0	482	
3	0	0	0	0	480	
4	0	0	0	0	477	
5	0	0	0	0	476	
6	0	0	0	0	473	
7	0	0	0	0	472	
8	0	0	0	0	470	
9	0	0	0	0	469	
10	0	0	0	0	470	
11	0	0	0	0	468	
12	0	0	0	0	467	
13	0	0	0	0	466	
14	0	0	0	0	465	
15	0	0	0	0	467	
0	0	0	0	0	465	
1	0	0	0	0	465	
2	0	0	0	0	465	
3	0	0	0	0	463	
4	0	0	0	0	464	
5	0	0	0	0	463	
6	0	0	0	0	463	
7	0	0	0	0	463	
8	0	0	0	0	462	
9	0	0	0	0	463	
10	0	0	0	0	462	
11	0	0	0	0	462	
12	0	0	0	0	462	
13	0	0	0	0	461	
14	0	0	0	0	462	
15	0	0	0	0	461	
0	0	0	0	0	460	
1	0	0	0	0	461	
2	0	0	0	0	460	
3	0	0	0	0	462	
4	0	0	0	0	462	
5	0	0	0	0	462	
6	0	0	0	0	462	
7	0	0	0	0	462	
8	0	0	0	0	463	
9	0	0	0	0	464	
10	0	0	0	0	464	
11	0	0	0	0	464	
12	0	0	0	0	464	
13	0	0	0	0	467	
14	0	0	0	0	466	
15	0	0	0	0	466	
0	0	0	0	0	466	
1	0	0	0	0	466	
2	0	0	0	0	467	
3	0	0	0	0	467	
4	0	0	0	0	467	
5	0	0	0	0	466	
6	0	0	0	0	466	
7	0	0	0	0	467	
8	0	0	0	0	467	
9	0	0	0	0	468	
10	0	0	0	0	469	
11	0	0	0	0	469	
12	0	0	0	0	471	
13	0	0	0	0	470	
14	0	0	0	0	470	
15	0	0	0	0	470	
0	0	0	0	0	469	
1	0	0	0	0	471	
2	0	0	0	0	470	
3	0	0	0	0	470	
4	0	0	0	0	470	
5	0	0	0	0	470	
6	0	0	0	0	472	
7	0	0	0	0	469	
8	0	0	0	0	467	
9	0	0	0	0	465	
10	0	0	0	0	462	
11	0	0	0	0	460	
12	0	0	0	0	457	
13	0	0	0	0	454	
14	0	0	0	0	450	
15	0	0	0	0	446	
0	0	0	0	0	445	
1	0	0	0	0	440	
2	0	0	0	0	437	
3	0	0	0	0	433	
4	0	0	0	0	430	
5	0	0	0	0	428	
6	0	0	0	0	425	
7	0	0	0	0	420	
8	0	0	0	0	418	
9	0	0	0	0	414	
10	0	0	0	0	413	
11	0	0	0	0	408	
12	0	0	0	0	406	
13	0	0	0	0	402	
14	0	0	0	0	399	
15	0	0	0	0	397	
0	0	0	0	0	394	
1	0	0	0	0	391	
2	0	0	0	0	388	
3	0	0	0	0	385	
4	0	0	0	0	384	
5	0	0	0	0	380	
6	0	0	0	0	378	
7	0	0	0	0	376	
8	0	0	0	0	373	
9	0	0	0	0	373	
10	0	0	0	0	371	
11	0	0	0	0	370	
12	0	0	0	0	369	
13	0	0	0	0	368	
14	0	0	0	0	368	
15	0	0	0	0	367	
0	0	0	0	0	367	
1	0	0	0	0	366	
2	0	0	0	0	365	
3	0	0	0	0	365	
4	0	0	0	0	364	
5	0	0	0	0	363	
6	0	0	0	0	363	
7	0	0	0	0	361	
8	0	0	0	0	361	
9	0	0	0	0	360	
10	0	0	0	0	359	
11	0	0	0	0	358	
12	0	0	0	0	357	
13	0	0	0	0	357	
14	0	0	0	0	356	
15	0	0	0	0	354	
0	0	0	0	0	353	
1	0	0	0	0	351	
2	0	0	0	0	350	
3	0	0	0	0	349	
4	0	0	0	0	347	
5	0	0	0	0	346	
6	0	0	0	0	346	
7	0	0	0	0	348	
8	0	0	0	0	350	
9	0	0	0	0	353	
10	0	0	0	0	355	
11	0	0	0	0	359	
12	0	0	0	0	364	
13	0	0	0	0	368	
14	0	0	0	0	371	
15	0	0	0	0	377	
0	0	0	0	0	380	
1	0	0	0	0	386	
2	0	0	0	0	390	
3	0	0	0	0	395	
4	0	0	0	0	399	
5	0	0	0	0	403	
6	0	0	0	0	408	
7	0	0	0	0	411	
8	0	0	0	0	413	
9	0	0	0	0	415	
10	0	0	0	0	415	
11	0	0	0	0	418	
12	0	0	0	0	419	
13	0	0	0	0	419	
14	0	0	0	0	420	
15	0	0	0	0	419	
0	0	0	0	0	421	
1	0	0	0	0	420	
2	0	0	0	0	420	
3	0	0	0	0	420	
4	0	0	0	0	420	
5	0	0	0	0	421	
6	0	0	0	0	421	
7	0	0	0	0	424	
8	0	0	0	0	427	
9	0	0	0	0	429	
10	0	0	0	0	434	
11	0	0	0	0	437	
12	0	0	0	0	441	
13	0	0	0	0	446	
14	0	0	0	0	450	
15	0	0	0	0	456	
0	0	0	0	0	461	
1	0	0	0	0	465	
2	0	0	0	0	470	
3	0	0	0	0	474	
4	0	0	0	0	480	
5	0	0	0	0	484	
6	0	0	0	0	488	
7	0	0	0	0	493	
8	0	0	0	0	497	
9	0	0	0	0	503	
10	0	0	0	0	507	
11	0	0	0	0	511	
12	0	0	0	0	515	
13	0	0	0	0	519	
14	0	0	0	0	524	
15	0	0	0	0	528	
0	0	0	0	0	532	
1	0	0	0	0	536	
2	0	0	0	0	540	
3	0	0	0	0	545	
4	0	0	0	0	548	
5	0	0	0	0	552	
6	0	0	0	0	556	
7	0	0	0	0	560	
8	0	0	0	0	563	
9	0	0	0	0	568	
10	0	0	0	0	570	
11	0	0	0	0	575	
12	0	0	0	0	577	
13	0	0	0	0	582	
14	0	0	0	0	585	
15	0	0	0	0	589	
0	0	0	0	0	592	
1	0	0	0	0	595	
2	0	0	0	0	600	
3	0	0	0	0	603	
4	0	0	0	0	606	
5	0	0	0	0	609	
6	0	0	0	0	612	
7	0	0	0	0	615	
8	0	0	0	0	616	
9	0	0	0	0	617	
10	0	0	0	0	616	
11	0	0	0	0	617	
12	0	0	0	0	618	
13	0	0	0	0	618	
14	0	0	0	0	617	
15	0	0	0	0	618	
0	0	0	0	0	617	
1	0	0	0	0	619	
2	0	0	0	0	618	
3	0	0	0	0	617	
4	0	0	0	0	617	
5	0	0	0	0	615	
6	0	0	0	0	617	
7	0	0	0	0	616	
8	0	0	0	0	616	
9	0	0	0	0	617	
10	0	0	0	0	615	
11	0	0	0	0	616	
12	0	0	0	0	614	
13	0	0	0	0	614	
14	0	0	0	0	614	
15	0	0	0	0	614	
0	0	0	0	0	615	
1	0	0	0	0	613	
2	0	0	0	0	613	
3	0	0	0	0	614	
4	0	0	0	0	613	
5	0	0	0	0	614	
6	0	0	0	0	613	
7	0	0	0	0	612	
8	0	0	0	0	612	
9	0	0	0	0	611	
10	0	0	0	0	611	
11	0	0	0	0	609	
12	0	0	0	0	609	
13	0	0	0	0	609	
14	0	0	0	0	607	
15	0	0	0	0	608	
0	0	0	0	0	607	
1	0	0	0	0	606	
2	0	0	0	0	605	
3	0	0	0	0	605	
4	0	0	0	0	606	
5	0	0	0	0	604	
6	0	0	0	0	604	
7	0	0	0	0	604	
8	0	0	0	0	604	
9	0	0	0	0	605	
10	0	0	0	0	604	
11	0	0	0	0	604	
12	0	0	0	0	604	
13	0	0	0	0	603	
14	0	0	0	0	604	
15	0	0	0	0	603	
0	0	0	0	0	602	
1	0	0	0	0	603	
2	0	0	0	0	601	
3	0	0	0	0	602	
4	0	0	0	0	601	
5	0	0	0	0	600	
6	0	0	0	0	600	
7	0	0	0	0	600	
8	0	0	0	0	601	
9	0	0	0	0	600	
10	0	0	0	0	600	
11	0	0	0	0	600	
12	0	0	0	0	599	
13	0	0	0	0	600	
14	0	0	0	0	600	
15	0	0	0	0	600	
0	0	0	0	0	600	
1	0	0	0	0	599	
2	0	0	0	0	600	
3	0	0	0	0	598	
4	0	0	0	0	598	
5	0	0	0	0	598	
6	0	0	0	0	596	
7	0	0	0	0	597	
8	0	0	0	0	595	
9	0	0	0	0	595	
10	0	0	0	0	595	
11	0	0	0	0	593	
12	0	0	0	0	594	
13	0	0	0	0	593	
14	0	0	0	0	593	
15	0	0	0	0	593	
0	0	0	0	0	592	
1	0	0	0	0	593	
2	0	0	0	0	590	
3	0	0	0	0	590	
4	0	0	0	0	591	
5	0	0	0	0	589	
6	0	0	0	0	590	
7	0	0	0	0	588	
8	0	0	0	0	587	
9	0	0	0	0	586	
10	0	0	0	0	584	
11	0	0	0	0	584	
12	0	0	0	0	583	
13	0	0	0	0	581	
14	0	0	0	0	581	
15	0	0	0	0	579	
0	0	0	0	0	579	
1	0	0	0	0	576	
2	0	0	0	0	575	
3	0	0	0	0	575	
4	0	0	0	0	574	
5	0	0	0	0	575	
6	0	0	0	0	573	
7	0	0	0	0	571	
8	0	0	0	0	571	
9	0	0	0	0	568	
10	0	0	0	0	569	
11	0	0	0	0	567	
12	0	0	0	0	566	
13	0	0	0	0	564	
14	0	0	0	0	563	
15	0	0	0	0	563	
0	0	0	0	0	560	
1	0	0	0	0	559	
2	0	0	0	0	558	
3	0	0	0	0	555	
4	0	0	0	0	556	
5	0	0	0	0	553	
6	0	0	0	0	551	
7	0	0	0	0	550	
8	0	0	0	0	548	
9	0	0	0	0	548	
10	0	0	0	0	546	
11	0	0	0	0	545	
12	0	0	0	0	543	
13	0	0	0	0	541	
14	0	0	0	0	541	
15	0	0	0	0	538	
0	0	0	0	0	536	
1	0	0	0	0	535	
2	0	0	0	0	533	
3	0	0	0	0	533	
4	0	0	0	0	530	
5	0	0	0	0	529	
6	0	0	0	0	528	
7	0	0	0	0	526	
8	0	0	0	0	525	
9	0	0	0	0	523	
10	0	0	0	0	520	
11	0	0	0	0	518	
12	0	0	0	0	515	
13	0	0	0	0	514	
14	0	0	0	0	511	
15	0	0	0	0	509	
0	0	0	0	0	507	
1	0	0	0	0	503	
2	0	0	0	0	502	
3	0	0	0	0	499	
4	0	0	0	0	496	
5	0	0	0	0	494	
6	0	0	0	0	492	
7	0	0	0	0	490	
8	0	0	0	0	487	
9	0	0	0	0	485	
10	0	0	0	0	483	
11	0	0	0	0	481	
12	0	0	0	0	480	
13	0	0	0	0	476	
14	0	0	0	0	474	
15	0	0	0	0	473	
0	0	0	0	0	470	
1	0	0	0	0	470	
2	0	0	0	0	469	
3	0	0	0	0	467	
4	0	0	0	0	467	
5	0	0	0	0	465	
6	0	0	0	0	466	
7	0	0	0	0	466	
8	0	0	0	0	465	
9	0	0	0	0	465	
10	0	0	0	0	463	
11	0	0	0	0	464	
12	0	0	0	0	463	
13	0	0	0	0	462	
14	0	0	0	0	463	
15	0	0	0	0	462	
0	0	0	0	0	463	
1	0	0	0	0	462	
2	0	0	0	0	462	
3	0	0	0	0	461	
4	0	0	0	0	460	
5	0	0	0	0	462	
6	0	0	0	0	461	
7	0	0	0	0	461	
8	0	0	0	0	461	
9	0	0	0	0	461	
10	0	0	0	0	462	
11	0	0	0	0	461	
12	0	0	0	0	462	
13	0	0	0	0	461	
14	0	0	0	0	462	
15	0	0	0	0	463	
0	0	0	0	0	463	
1	0	0	0	0	463	
2	0	0	0	0	463	
3	0	0	0	0	463	
4	0	0	0	0	465	
5	0	0	0	0	464	
6	0	0	0	0	465	
7	0	0	0	0	465	
8	0	0	0	0	465	
9	0	0	0	0	467	
10	0	0	0	0	467	
11	0	0	0	0	467	
12	0	0	0	0	467	
13	0	0	0	0	467	
14	0	0	0	0	469	
15	0	0	0	0	468	
0	0	0	0	0	468	
1	0	0	0	0	468	
2	0	0	0	0	468	
3	0	0	0	0	470	
4	0	0	0	0	470	
5	0	0	0	0	470	
6	0	0	0	0	470	
7	0	0	0	0	470	
8	0	0	0	0	472	
9	0	0	0	0	471	
10	0	0	0	0	470	
11	0	0	0	0	472	
12	0	0	0	0	471	
13	0	0	0	0	472	
14	0	0	0	0	472	
15	0	0	0	0	471	
0	0	0	0	0	469	
1	0	0	0	0	466	
2	0	0	0	0	465	
3	0	0	0	0	461	
4	0	0	0	0	458	
5	0	0	0	0	454	
6	0	0	0	0	450	
7	0	0	0	0	448	
8	0	0	0	0	445	
9	0	0	0	0	441	
10	0	0	0	0	438	
11	0	0	0	0	433	
12	0	0	0	0	432	
13	0	0	0	0	428	
14	0	0	0	0	425	
15	0	0	0	0	421	
0	0	0	0	0	418	
1	0	0	0	0	415	
2	0	0	0	0	412	
3	0	0	0	0	409	
4	0	0	0	0	406	
5	0	0	0	0	402	
6	0	0	0	0	400	
7	0	0	0	0	397	
8	0	0	0	0	395	
9	0	0	0	0	392	
10	0	0	0	0	388	
11	0	0	0	0	386	
12	0	0	0	0	383	
13	0	0	0	0	380	
14	0	0	0	0	378	
15	0	0	0	0	375	
0	0	0	0	0	375	
1	0	0	0	0	373	
2	0	0	0	0	372	
3	0	0	0	0	371	
4	0	0	0	0	370	
5	0	0	0	0	371	
6	0	0	0	0	369	
7	0	0	0	0	369	
8	0	0	0	0	369	
9	0	0	0	0	367	
10	0	0	0	0	368	
11	0	0	0	0	366	
12	0	0	0	0	365	
13	0	0	0	0	365	
14	0	0	0	0	364	
15	0	0	0	0	364	
0	0	0	0	0	362	
1	0	0	0	0	360	
2	0	0	0	0	359	
3	0	0	0	0	357	
4	0	0	0	0	358	
5	0	0	0	0	355	
6	0	0	0	0	355	
7	0	0	0	0	354	
8	0	0	0	0	352	
9	0	0	0	0	351	
10	0	0	0	0	350	
11	0	0	0	0	349	
12	0	0	0	0	348	
13	0	0	0	0	347	
14	0	0	0	0	347	
15	0	0	0	0	348	
0	0	0	0	0	350	
1	0	0	0	0	353	
2	0	0	0	0	356	
3	0	0	0	0	361	
4	0	0	0	0	364	
5	0	0	0	0	368	
6	0	0	0	0	373	
7	0	0	0	0	377	
8	0	0	0	0	383	
9	0	0	0	0	387	
10	0	0	0	0	391	
11	0	0	0	0	396	
12	0	0	0	0	401	
13	0	0	0	0	406	
14	0	0	0	0	411	
15	0	0	0	0	413	
0	0	0	0	0	416	
1	0	0	0	0	417	
2	0	0	0	0	420	
3	0	0	0	0	420	
4	0	0	0	0	420	
5	0	0	0	0	420	
6	0	0	0	0	420	
7	0	0	0	0	421	
8	0	0	0	0	421	
9	0	0	0	0	421	
10	0	0	0	0	420	
11	0	0	0	0	419	
12	0	0	0	0	421	
13	0	0	0	0	421	
14	0	0	0	0	421	
15	0	0	0	0	424	
0	0	0	0	0	426	
1	0	0	0	0	431	
2	0	0	0	0	433	
3	0	0	0	0	438	
4	0	0	0	0	442	
5	0	0	0	0	446	
6	0	0	0	0	451	
7	0	0	0	0	456	
8	0	0	0	0	460	
9	0	0	0	0	465	
10	0	0	0	0	469	
11	0	0	0	0	475	
12	0	0	0	0	479	
13	0	0	0	0	483	
14	0	0	0	0	488	
15	0	0	0	0	492	
0	0	0	0	0	497	
1	0	0	0	0	502	
2	0	0	0	0	505	
3	0	0	0	0	511	
4	0	0	0	0	514	
5	0	0	0	0	520	
6	0	0	0	0	524	
7	0	0	0	0	528	
8	0	0	0	0	532	
9	0	0	0	0	536	
10	0	0	0	0	540	
11	0	0	0	0	544	
12	0	0	0	0	548	
13	0	0	0	0	553	
14	0	0	0	0	555	
15	0	0	0	0	561	
0	0	0	0	0	564	
1	0	0	0	0	568	
2	0	0	0	0	572	
3	0	0	0	0	575	
4	0	0	0	0	580	
5	0	0	0	0	583	
6	0	0	0	0	587	
7	0	0	0	0	591	
8	0	0	0	0	592	
9	0	0	0	0	598	
10	0	0	0	0	600	
11	0	0	0	0	603	
12	0	0	0	0	607	
13	0	0	0	0	610	
14	0	0	0	0	614	
15	0	0	0	0	615	
0	0	0	0	0	615	
1	0	0	0	0	617	
2	0	0	0	0	616	
3	0	0	0	0	618	
4	0	0	0	0	617	
5	0	0	0	0	617	
6	0	0	0	0	617	
7	0	0	0	0	617	
8	0	0	0	0	619	
9	0	0	0	0	617	
10	0	0	0	0	617	
11	0	0	0	0	618	
12	0	0	0	0	616	
13	0	0	0	0	617	
14	0	0	0	0	617	
15	0	0	0	0	616	
0	0	0	0	0	616	
1	0	0	0	0	615	
2	0	0	0	0	616	
3	0	0	0	0	615	
4	0	0	0	0	615	
5	0	0	0	0	615	
6	0	0	0	0	613	
7	0	0	0	0	615	
8	0	0	0	0	613	
9	0	0	0	0	613	
10	0	0	0	0	614	
11	0	0	0	0	611	
12	0	0	0	0	612	
13	0	0	0	0	611	
14	0	0	0	0	611	
15	0	0	0	0	611	
0	0	0	0	0	610	
1	0	0	0	0	611	
2	0	0	0	0	610	
3	0	0	0	0	609	
4	0	0	0	0	609	
5	0	0	0	0	608	
6	0	0	0	0	609	
7	0	0	0	0	608	
8	0	0	0	0	607	
9	0	0	0	0	607	
10	0	0	0	0	605	
11	0	0	0	0	606	
12	0	0	0	0	605	
13	0	0	0	0	604	
14	0	0	0	0	604	
15	0	0	0	0	603	
0	0	0	0	0	604	
1	0	0	0	0	603	
2	0	0	0	0	602	
3	0	0	0	0	602	
4	0	0	0	0	601	
5	0	0	0	0	604	
6	0	0	0	0	602	
7	0	0	0	0	603	
8	0	0	0	0	603	
9	0	0	0	0	601	
10	0	0	0	0	603	
11	0	0	0	0	602	
12	0	0	0	0	602	
13	0	0	0	0	602	
14	0	0	0	0	601	
15	0	0	0	0	603	
0	0	0	0	0	601	
1	0	0	0	0	601	
2	0	0	0	0	601	
3	0	0	0	0	600	
4	0	0	0	0	601	
5	0	0	0	0	600	
6	0	0	0	0	600	
7	0	0	0	0	600	
8	0	0	0	0	600	
9	0	0	0	0	601	
10	0	0	0	0	599	
11	0	0	0	0	599	
12	0	0	0	0	599	
13	0	0	0	0	597	
14	0	0	0	0	598	
15	0	0	0	0	597	
0	0	0	0	0	596	
1	0	0	0	0	596	
2	0	0	0	0	595	
3	0	0	0	0	595	
4	0	0	0	0	594	
5	0	0	0	0	593	
6	0	0	0	0	593	
7	0	0	0	0	591	
8	0	0	0	0	592	
9	0	0	0	0	591	
10	0	0	0	0	591	
11	0	0	0	0	589	
12	0	0	0	0	589	
13	0	0	0	0	591	
14	0	0	0	0	589	
15	0	0	0	0	588	
0	0	0	0	0	588	
1	0	0	0	0	586	
2	0	0	0	0	586	
3	0	0	0	0	584	
4	0	0	0	0	583	
5	0	0	0	0	582	
6	0	0	0	0	580	
7	0	0	0	0	580	
8	0	0	0	0	578	
9	0	0	0	0	577	
10	0	0	0	0	576	
11	0	0	0	0	574	
12	0	0	0	0	575	
13	0	0	0	0	573	
14	0	0	0	0	572	
15	0	0	0	0	572	
0	0	0	0	0	569	
1	0	0	0	0	570	
2	0	0	0	0	568	
3	0	0	0	0	568	
4	0	0	0	0	567	
5	0	0	0	0	564	
6	0	0	0	0	565	
7	0	0	0	0	563	
8	0	0	0	0	561	
9	0	0	0	0	559	
10	0	0	0	0	557	
11	0	0	0	0	557	
12	0	0	0	0	555	
13	0	0	0	0	553	
14	0	0	0	0	552	
15	0	0	0	0	550	
0	0	0	0	0	550	
1	0	0	0	0	548	
2	0	0	0	0	546	
3	0	0	0	0	545	
4	0	0	0	0	542	
5	0	0	0	0	542	
6	0	0	0	0	540	
7	0	0	0	0	539	
8	0	0	0	0	536	
9	0	0	0	0	535	
10	0	0	0	0	535	
11	0	0	0	0	533	
12	0	0	0	0	531	
13	0	0	0	0	530	
14	0	0	0	0	528	
15	0	0	0	0	527	
0	0	0	0	0	525	
1	0	0	0	0	523	
2	0	0	0	0	521	
3	0	0	0	0	518	
4	0	0	0	0	517	
5	0	0	0	0	514	
6	0	0	0	0	511	
7	0	0	0	0	510	
8	0	0	0	0	506	
9	0	0	0	0	504	
10	0	0	0	0	502	
11	0	0	0	0	499	
12	0	0	0	0	498	
13	0	0	0	0	495	
14	0	0	0	0	494	
15	0	0	0	0	490	
0	0	0	0	0	488	
1	0	0	0	0	486	
2	0	0	0	0	483	
3	0	0	0	0	481	
4	0	0	0	0	479	
5	0	0	0	0	476	
6	0	0	0	0	475	
7	0	0	0	0	473	
8	0	0	0	0	473	
9	0	0	0	0	471	
10	0	0	0	0	470	
11	0	0	0	0	469	
12	0	0	0	0	467	
13	0	0	0	0	468	
14	0	0	0	0	467	
15	0	0	0	0	466	
0	0	0	0	0	465	
1	0	0	0	0	465	
2	0	0	0	0	466	
3	0	0	0	0	464	
4	0	0	0	0	463	
5	0	0	0	0	463	
6	0	0	0	0	462	
7	0	0	0	0	463	
8	0	0	0	0	461	
9	0	0	0	0	461	
10	0	0	0	0	460	
11	0	0	0	0	460	
12	0	0	0	0	462	
13	0	0	0	0	460	
14	0	0	0	0	460	
15	0	0	0	0	460	
0	0	0	0	0	460	
1	0	0	0	0	460	
2	0	0	0	0	460	
3	0	0	0	0	460	
4	0	0	0	0	460	
5	0	0	0	0	460	
6	0	0	0	0	462	
7	0	0	0	0	462	
8	0	0	0	0	462	
9	0	0	0	0	463	
10	0	0	0	0	463	
11	0	0	0	0	465	
12	0	0	0	0	465	
13	0	0	0	0	465	
14	0	0	0	0	465	
15	0	0	0	0	465	
0	0	0	0	0	467	
1	0	0	0	0	466	
2	0	0	0	0	466	
3	0	0	0	0	466	
4	0	0	0	0	467	
5	0	0	0	0	469	
6	0	0	0	0	468	
7	0	0	0	0	469	
8	0	0	0	0	469	
9	0	0	0	0	469	
10	0	0	0	0	471	
11	0	0	0	0	470	
12	0	0	0	0	470	
13	0	0	0	0	470	
14	0	0	0	0	470	
15	0	0	0	0	472	
0	0	0	0	0	470	
1	0	0	0	0	470	
2	0	0	0	0	471	
3	0	0	0	0	471	
4	0	0	0	0	472	
5	0	0	0	0	472	
6	0	0	0	0	472	
7	0	0	0	0	470	
8	0	0	0	0	468	
9	0	0	0	0	467	
10	0	0	0	0	464	
11	0	0	0	0	460	
12	0	0	0	0	457	
13	0	0	0	0	454	
14	0	0	0	0	452	
15	0	0	0	0	448	
0	0	0	0	0	444	
1	0	0	0	0	441	
2	0	0	0	0	439	
3	0	0	0	0	435	
4	0	0	0	0	432	
5	0	0	0	0	429	
6	0	0	0	0	426	
7	0	0	0	0	421	
8	0	0	0	0	420	
9	0	0	0	0	416	
10	0	0	0	0	413	
11	0	0	0	0	410	
12	0	0	0	0	406	
13	0	0	0	0	404	
14	0	0	0	0	400	
15	0	0	0	0	398	
0	0	0	0	0	396	
1	0	0	0	0	391	
2	0	0	0	0	390	
3	0	0	0	0	386	
4	0	0	0	0	384	
5	0	0	0	0	381	
6	0	0	0	0	378	
7	0	0	0	0	377	
8	0	0	0	0	375	
9	0	0	0	0	374	
10	0	0	0	0	372	
11	0	0	0	0	371	
12	0	0	0	0	371	
13	0	0	0	0	369	
14	0	0	0	0	369	
15	0	0	0	0	368	
0	0	0	0	0	367	
1	0	0	0	0	368	
2	0	0	0	0	367	
3	0	0	0	0	366	
4	0	0	0	0	366	
5	0	0	0	0	365	
6	0	0	0	0	366	
7	0	0	0	0	364	
8	0	0	0	0	363	
9	0	0	0	0	361	
10	0	0	0	0	360	
11	0	0	0	0	359	
12	0	0	0	0	358	
13	0	0	0	0	356	
14	0	0	0	0	356	
15	0	0	0	0	354	
0	0	0	0	0	355	
1	0	0	0	0	353	
2	0	0	0	0	352	
3	0	0	0	0	351	
4	0	0	0	0	348	
5	0	0	0	0	348	
6	0	0	0	0	347	
7	0	0	0	0	348	
8	0	0	0	0	350	
9	0	0	0	0	352	
10	0	0	0	0	358	
11	0	0	0	0	361	
12	0	0	0	0	366	
13	0	0	0	0	370	
14	0	0	0	0	374	
15	0	0	0	0	380	
0	0	0	0	0	384	
1	0	0	0	0	387	
2	0	0	0	0	393	
3	0	0	0	0	397	
4	0	0	0	0	402	
5	0	0	0	0	406	
6	0	0	0	0	410	
7	0	0	0	0	413	
8	0	0	0	0	414	
9	0	0	0	0	416	
10	0	0	0	0	417	
11	0	0	0	0	418	
12	0	0	0	0	419	
13	0	0	0	0	419	
14	0	0	0	0	422	
15	0	0	0	0	421	
0	0	0	0	0	420	
1	0	0	0	0	420	
2	0	0	0	0	420	
3	0	0	0	0	421	
4	0	0	0	0	421	
5	0	0	0	0	421	
6	0	0	0	0	422	
7	0	0	0	0	424	
8	0	0	0	0	427	
9	0	0	0	0	431	
10	0	0	0	0	434	
11	0	0	0	0	440	
12	0	0	0	0	443	
13	0	0	0	0	448	
14	0	0	0	0	452	
15	0	0	0	0	457	
0	0	0	0	0	463	
1	0	0	0	0	467	
2	0	0	0	0	472	
3	0	0	0	0	476	
4	0	0	0	0	480	
5	0	0	0	0	484	
6	0	0	0	0	488	
7	0	0	0	0	494	
8	0	0	0	0	497	
9	0	0	0	0	502	
10	0	0	0	0	507	
11	0	0	0	0	510	
12	0	0	0	0	515	
13	0	0	0	0	521	
14	0	0	0	0	524	
15	0	0	0	0	530	
0	0	0	0	0	532	
1	0	0	0	0	539	
2	0	0	0	0	542	
3	0	0	0	0	545	
4	0	0	0	0	549	
5	0	0	0	0	552	
6	0	0	0	0	557	
7	0	0	0	0	560	
8	0	0	0	0	564	
9	0	0	0	0	568	
10	0	0	0	0	572	
11	0	0	0	0	577	
12	0	0	0	0	580	
13	0	0	0	0	583	
14	0	0	0	0	588	
15	0	0	0	0	591	
0	0	0	0	0	595	
1	0	0	0	0	598	
2	0	0	0	0	601	
3	0	0	0	0	605	
4	0	0	0	0	606	
5	0	0	0	0	611	
6	0	0	0	0	613	
7	0	0	0	0	615	
8	0	0	0	0	617	
9	0	0	0	0	617	
10	0	0	0	0	619	
11	0	0	0	0	619	
12	0	0	0	0	618	
13	0	0	0	0	618	
14	0	0	0	0	618	
15	0	0	0	0	620	
0	0	0	0	0	619	
1	0	0	0	0	619	
2	0	0	0	0	619	
3	0	0	0	0	618	
4	0	0	0	0	619	
5	0	0	0	0	618	
6	0	0	0	0	616	
7	0	0	0	0	617	
8	0	0	0	0	616	
9	0	0	0	0	617	
10	0	0	0	0	616	
11	0	0	0	0	616	
12	0	0	0	0	615	
13	0	0	0	0	614	
14	0	0	0	0	615	
15	0	0	0	0	615	
0	0	0	0	0	615	
1	0	0	0	0	615	
2	0	0	0	0	613	
3	0	0	0	0	614	
4	0	0	0	0	613	
5	0	0	0	0	612	
6	0	0	0	0	613	
7	0	0	0	0	611	
8	0	0	0	0	611	
9	0	0	0	0	610	
10	0	0	0	0	610	
11	0	0	0	0	609	
12	0	0	0	0	608	
13	0	0	0	0	608	
14	0	0	0	0	606	
15	0	0	0	0	606	
0	0	0	0	0	607	
1	0	0	0	0	605	
2	0	0	0	0	606	
3	0	0	0	0	604	
4	0	0	0	0	604	
5	0	0	0	0	605	
6	0	0	0	0	603	
7	0	0	0	0	604	
8	0	0	0	0	603	
9	0	0	0	0	603	
10	0	0	0	0	602	
11	0	0	0	0	601	
12	0	0	0	0	603	
13	0	0	0	0	602	
14	0	0	0	0	601	
15	0	0	0	0	601	
0	0	0	0	0	601	
1	0	0	0	0	603	
2	0	0	0	0	601	
3	0	0	0	0	601	
4	0	0	0	0	601	
5	0	0	0	0	600	
6	0	0	0	0	601	
7	0	0	0	0	601	
8	0	0	0	0	601	
9	0	0	0	0	602	
10	0	0	0	0	601	
11	0	0	0	0	601	
12	0	0	0	0	601	
13	0	0	0	0	600	
14	0	0	0	0	601	
15	0	0	0	0	599	
0	0	0	0	0	600	
1	0	0	0	0	599	
2	0	0	0	0	598	
3	0	0	0	0	598	
4	0	0	0	0	596	
5	0	0	0	0	598	
6	0	0	0	0	596	
7	0	0	0	0	596	
8	0	0	0	0	595	
9	0	0	0	0	594	
10	0	0	0	0	595	
11	0	0	0	0	593	
12	0	0	0	0	593	
13	0	0	0	0	592	
14	0	0	0	0	591	
15	0	0	0	0	591	
0	0	0	0	0	591	
1	0	0	0	0	590	
2	0	0	0	0	589	
3	0	0	0	0	589	
4	0	0	0	0	589	
5	0	0	0	0	589	
6	0	0	0	0	588	
7	0	0	0	0	588	
8	0	0	0	0	586	
9	0	0	0	0	587	
10	0	0	0	0	585	
11	0	0	0	0	583	
12	0	0	0	0	583	
13	0	0	0	0	580	
14	0	0	0	0	580	
15	0	0	0	0	579	
0	0	0	0	0	578	
1	0	0	0	0	577	
2	0	0	0	0	575	
3	0	0	0	0	575	
4	0	0	0	0	574	
5	0	0	0	0	573	
6	0	0	0	0	572	
7	0	0	0	0	571	
8	0	0	0	0	571	
9	0	0	0	0	568	
10	0	0	0	0	567	
11	0	0	0	0	567	
12	0	0	0	0	565	
13	0	0	0	0	565	
14	0	0	0	0	563	
15	0	0	0	0	562	
0	0	0	0	0	562	
1	0	0	0	0	559	
2	0	0	0	0	560	
3	0	0	0	0	557	
4	0	0	0	0	556	
5	0	0	0	0	554	
6	0	0	0	0	551	
7	0	0	0	0	551	
8	0	0	0	0	549	
9	0	0	0	0	547	
10	0	0	0	0	546	
11	0	0	0	0	543	
12	0	0	0	0	543	
13	0	0	0	0	541	
14	0	0	0	0	539	
15	0	0	0	0	538	
0	0	0	0	0	536	
1	0	0	0	0	536	
2	0	0	0	0	534	
3	0	0	0	0	532	
4	0	0	0	0	532	
5	0	0	0	0	529	
6	0	0	0	0	529	
7	0	0	0	0	527	
8	0	0	0	0	525	
9	0	0	0	0	522	
10	0	0	0	0	519	
11	0	0	0	0	518	
12	0	0	0	0	515	
13	0	0	0	0	512	
14	0	0	0	0	510	
15	0	0	0	0	506	
0	0	0	0	0	505	
1	0	0	0	0	502	
2	0	0	0	0	499	
3	0	0	0	0	497	
4	0	0	0	0	495	
5	0	0	0	0	494	
6	0	0	0	0	491	
7	0	0	0	0	487	
8	0	0	0	0	486	
9	0	0	0	0	483	
10	0	0	0	0	482	
11	0	0	0	0	480	
12	0	0	0	0	478	
13	0	0	0	0	476	
14	0	0	0	0	473	
15	0	0	0	0	474	
0	0	0	0	0	472	
1	0	0	0	0	471	
2	0	0	0	0	470	
3	0	0	0	0	468	
4	0	0	0	0	469	
5	0	0	0	0	468	
6	0	0	0	0	467	
7	0	0	0	0	467	
8	0	0	0	0	465	
9	0	0	0	0	466	
10	0	0	0	0	465	
11	0	0	0	0	465	
12	0	0	0	0	464	
13	0	0	0	0	463	
14	0	0	0	0	464	
15	0	0	0	0	463	
0	0	0	0	0	463	
1	0	0	0	0	462	
2	0	0	0	0	462	
3	0	0	0	0	463	
4	0	0	0	0	462	
5	0	0	0	0	461	
6	0	0	0	0	461	
7	0	0	0	0	460	
8	0	0	0	0	462	
9	0	0	0	0	461	
10	0	0	0	0	462	
11	0	0	0	0	462	
12	0	0	0	0	461	
13	0	0	0	0	462	
14	0	0	0	0	462	
15	0	0	0	0	462	
0	0	0	0	0	462	
1	0	0	0	0	461	
2	0	0	0	0	463	
3	0	0	0	0	463	
4	0	0	0	0	463	
5	0	0	0	0	462	
6	0	0	0	0	462	
7	0	0	0	0	465	
8	0	0	0	0	464	
9	0	0	0	0	465	
10	0	0	0	0	465	
11	0	0	0	0	465	
12	0	0	0	0	467	
13	0	0	0	0	467	
14	0	0	0	0	467	
15	0	0	0	0	467	
0	0	0	0	0	467	
1	0	0	0	0	468	
2	0	0	0	0	467	
3	0	0	0	0	468	
4	0	0	0	0	468	
5	0	0	0	0	467	
6	0	0	0	0	469	
7	0	0	0	0	469	
8	0	0	0	0	469	
9	0	0	0	0	469	
10	0	0	0	0	469	
11	0	0	0	0	472	
12	0	0	0	0	471	
13	0	0	0	0	471	
14	0	0	0	0	471	
15	0	0	0	0	469	
0	0	0	0	0	469	
1	0	0	0	0	466	
2	0	0	0	0	463	
3	0	0	0	0	460	
4	0	0	0	0	457	
5	0	0	0	0	455	
6	0	0	0	0	451	
7	0	0	0	0	448	
8	0	0	0	0	444	
9	0	0	0	0	440	
10	0	0	0	0	440	
11	0	0	0	0	435	
12	0	0	0	0	431	
13	0	0	0	0	428	
14	0	0	0	0	423	
15	0	0	0	0	421	
0	0	0	0	0	418	
1	0	0	0	0	415	
2	0	0	0	0	412	
3	0	0	0	0	408	
4	0	0	0	0	406	
5	0	0	0	0	402	
6	0	0	0	0	400	
7	0	0	0	0	396	
8	0	0	0	0	392	
9	0	0	0	0	391	
10	0	0	0	0	387	
11	0	0	0	0	384	
12	0	0	0	0	382	
13	0	0	0	0	378	
14	0	0	0	0	377	
15	0	0	0	0	375	
0	0	0	0	0	374	
1	0	0	0	0	372	
2	0	0	0	0	371	
3	0	0	0	0	371	
4	0	0	0	0	370	
5	0	0	0	0	369	
6	0	0	0	0	368	
7	0	0	0	0	367	
8	0	0	0	0	368	
9	0	0	0	0	366	
10	0	0	0	0	366	
11	0	0	0	0	365	
12	0	0	0	0	364	
13	0	0	0	0	365	
14	0	0	0	0	364	
15	0	0	0	0	363	
0	0	0	0	0	362	
1	0	0	0	0	360	
2	0	0	0	0	361	
3	0	0	0	0	358	
4	0	0	0	0	358	
5	0	0	0	0	357	
6	0	0	0	0	355	
7	0	0	0	0	355	
8	0	0	0	0	352	
9	0	0	0	0	351	
10	0	0	0	0	351	
11	0	0	0	0	348	
12	0	0	0	0	349	
13	0	0	0	0	347	
14	0	0	0	0	347	
15	0	0	0	0	348	
0	0	0	0	0	350	
1	0	0	0	0	354	
2	0	0	0	0	355	
3	0	0	0	0	359	
4	0	0	0	0	364	
5	0	0	0	0	368	
6	0	0	0	0	373	
7	0	0	0	0	378	
8	0	0	0	0	382	
9	0	0	0	0	387	
10	0	0	0	0	391	
11	0	0	0	0	396	
12	0	0	0	0	401	
13	0	0	0	0	405	
14	0	0	0	0	410	
15	0	0	0	0	412	
0	0	0	0	0	416	
1	0	0	0	0	417	
2	0	0	0	0	418	
3	0	0	0	0	419	
4	0	0	0	0	420	
5	0	0	0	0	421	
6	0	0	0	0	420	
7	0	0	0	0	420	
8	0	0	0	0	420	
9	0	0	0	0	420	
10	0	0	0	0	422	
11	0	0	0	0	421	
12	0	0	0	0	420	
13	0	0	0	0	420	
14	0	0	0	0	421	
15	0	0	0	0	424	
0	0	0	0	0	426	
1	0	0	0	0	430	
2	0	0	0	0	433	
3	0	0	0	0	437	
4	0	0	0	0	442	
5	0	0	0	0	447	
6	0	0	0	0	451	
7	0	0	0	0	456	
8	0	0	0	0	460	
9	0	0	0	0	467	
10	0	0	0	0	471	
11	0	0	0	0	475	
12	0	0	0	0	480	
13	0	0	0	0	484	
14	0	0	0	0	489	
15	0	0	0	0	494	
0	0	0	0	0	498	
1	0	0	0	0	504	
2	0	0	0	0	507	
3	0	0	0	0	513	
4	0	0	0	0	516	
5	0	0	0	0	520	
6	0	0	0	0	524	
7	0	0	0	0	528	
8	0	0	0	0	532	
9	0	0	0	0	536	
10	0	0	0	0	540	
11	0	0	0	0	545	
12	0	0	0	0	547	
13	0	0	0	0	553	
14	0	0	0	0	556	
15	0	0	0	0	561	
0	0	0	0	0	565	
1	0	0	0	0	568	
2	0	0	0	0	573	
3	0	0	0	0	576	
4	0	0	0	0	579	
5	0	0	0	0	583	
6	0	0	0	0	586	
7	0	0	0	0	591	
8	0	0	0	0	593	
9	0	0	0	0	598	
10	0	0	0	0	601	
11	0	0	0	0	604	
12	0	0	0	0	607	
13	0	0	0	0	611	
14	0	0	0	0	613	
15	0	0	0	0	616	
0	0	0	0	0	616	
1	0	0	0	0	620	
2	0	0	0	0	619	
3	0	0	0	0	619	
4	0	0	0	0	620	
5	0	0	0	0	619	
6	0	0	0	0	621	
7	0	0	0	0	620	
8	0	0	0	0	620	
9	0	0	0	0	620	
10	0	0	0	0	619	
11	0	0	0	0	620	
12	0	0	0	0	619	
13	0	0	0	0	619	
14	0	0	0	0	620	
15	0	0	0	0	619	
0	0	0	0	0	620	
1	0	0	0	0	619	
2	0	0	0	0	618	
3	0	0	0	0	619	
4	0	0	0	0	617	
5	0	0	0	0	617	
6	0	0	0	0	616	
7	0	0	0	0	615	
8	0	0	0	0	614	
9	0	0	0	0	614	
10	0	0	0	0	615	
11	0	0	0	0	614	
12	0	0	0	0	612	
13	0	0	0	0	612	
14	0	0	0	0	611	
15	0	0	0	0	612	
0	0	0	0	0	610	
1	0	0	0	0	609	
2	0	0	0	0	609	
3	0	0	0	0	608	
4	0	0	0	0	608	
5	0	0	0	0	607	
6	0	0	0	0	607	
7	0	0	0	0	607	
8	0	0	0	0	605	
9	0	0	0	0	606	
10	0	0	0	0	605	
11	0	0	0	0	604	
12	0	0	0	0	604	
13	0	0	0	0	602	
14	0	0	0	0	604	
15	0	0	0	0	603	
0	0	0	0	0	603	
1	0	0	0	0	603	
2	0	0	0	0	602	
3	0	0	0	0	604	
4	0	0	0	0	602	
5	0	0	0	0	603	
6	0	0	0	0	603	
7	0	0	0	0	603	
8	0	0	0	0	604	
9	0	0	0	0	603	
10	0	0	0	0	603	
11	0	0	0	0	604	
12	0	0	0	0	603	
13	0	0	0	0	604	
14	0	0	0	0	603	
15	0	0	0	0	602	
0	0	0	0	0	602	
1	0	0	0	0	600	
2	0	0	0	0	602	
3	0	0	0	0	601	
4	0	0	0	0	601	
5	0	0	0	0	602	
6	0	0	0	0	600	
7	0	0	0	0	602	
8	0	0	0	0	601	
9	0	0	0	0	600	
10	0	0	0	0	600	
11	0	0	0	0	599	
12	0	0	0	0	599	
13	0	0	0	0	599	
14	0	0	0	0	597	
15	0	0	0	0	597	
0	0	0	0	0	595	
1	0	0	0	0	596	
2	0	0	0	0	595	
3	0	0	0	0	593	
4	0	0	0	0	593	
5	0	0	0	0	592	
6	0	0	0	0	593	
7	0	0	0	0	592	
8	0	0	0	0	591	
9	0	0	0	0	591	
10	0	0	0	0	590	
11	0	0	0	0	591	
12	0	0	0	0	590	
13	0	0	0	0	590	
14	0	0	0	0	590	
15	0	0	0	0	587	
0	0	0	0	0	588	
1	0	0	0	0	586	
2	0	0	0	0	586	
3	0	0	0	0	585	
4	0	0	0	0	583	
5	0	0	0	0	583	
6	0	0	0	0	582	
7	0	0	0	0	580	
8	0	0	0	0	579	
9	0	0	0	0	578	
10	0	0	0	0	578	
11	0	0	0	0	576	
12	0	0	0	0	576	
13	0	0	0	0	575	
14	0	0	0	0	572	
15	0	0	0	0	573	
0	0	0	0	0	570	
1	0	0	0	0	569	
2	0	0	0	0	569	
3	0	0	0	0	566	
4	0	0	0	0	566	
5	0	0	0	0	564	
6	0	0	0	0	563	
7	0	0	0	0	562	
8	0	0	0	0	560	
9	0	0	0	0	560	
10	0	0	0	0	558	
11	0	0	0	0	557	
12	0	0	0	0	556	
13	0	0	0	0	553	
14	0	0	0	0	553	
15	0	0	0	0	551	
0	0	0	0	0	549	
1	0	0	0	0	547	
2	0	0	0	0	546	
3	0	0	0	0	546	
4	0	0	0	0	543	
5	0	0	0	0	542	
6	0	0	0	0	541	
7	0	0	0	0	539	
8	0	0	0	0	539	
9	0	0	0	0	536	
10	0	0	0	0	535	
11	0	0	0	0	533	
12	0	0	0	0	531	
13	0	0	0	0	531	
14	0	0	0	0	529	
15	0	0	0	0	528	
0	0	0	0	0	526	
1	0	0	0	0	523	
2	0	0	0	0	523	
3	0	0	0	0	519	
4	0	0	0	0	516	
5	0	0	0	0	514	
6	0	0	0	0	510	
7	0	0	0	0	509	
8	0	0	0	0	507	
9	0	0	0	0	503	
10	0	0	0	0	501	
11	0	0	0	0	497	
12	0	0	0	0	497	
13	0	0	0	0	493	
14	0	0	0	0	491	
15	0	0	0	0	488	
0	0	0	0	0	486	
1	0	0	0	0	484	
2	0	0	0	0	482	
3	0	0	0	0	480	
4	0	0	0	0	478	
5	0	0	0	0	474	
6	0	0	0	0	475	
7	0	0	0	0	472	
8	0	0	0	0	471	
9	0	0	0	0	470	
10	0	0	0	0	469	
11	0	0	0	0	469	
12	0	0	0	0	468	
13	0	0	0	0	467	
14	0	0	0	0	466	
15	0	0	0	0	465	
0	0	0	0	0	466	
1	0	0	0	0	465	
2	0	0	0	0	464	
3	0	0	0	0	463	
4	0	0	0	0	461	
5	0	0	0	0	462	
6	0	0	0	0	461	
7	0	0	0	0	460	
8	0	0	0	0	460	
9	0	0	0	0	459	
10	0	0	0	0	461	
11	0	0	0	0	459	
12	0	0	0	0	459	
13	0	0	0	0	459	
14	0	0	0	0	458	
15	0	0	0	0	460	
0	0	0	0	0	459	
1	0	0	0	0	459	
2	0	0	0	0	459	
3	0	0	0	0	459	
4	0	0	0	0	461	
5	0	0	0	0	460	
6	0	0	0	0	460	
7	0	0	0	0	460	
8	0	0	0	0	460	
9	0	0	0	0	462	
10	0	0	0	0	462	
11	0	0	0	0	462	
12	0	0	0	0	463	
13	0	0	0	0	463	
14	0	0	0	0	464	
15	0	0	0	0	464	
0	0	0	0	0	464	
1	0	0	0	0	464	
2	0	0	0	0	464	
3	0	0	0	0	465	
4	0	0	0	0	465	
5	0	0	0	0	465	
6	0	0	0	0	466	
7	0	0	0	0	466	
8	0	0	0	0	468	
9	0	0	0	0	468	
10	0	0	0	0	468	
11	0	0	0	0	469	
12	0	0	0	0	468	
13	0	0	0	0	470	
14	0	0	0	0	470	
15	0	0	0	0	470	
0	0	0	0	0	470	
1	0	0	0	0	469	
2	0	0	0	0	471	
3	0	0	0	0	470	
4	0	0	0	0	471	
5	0	0	0	0	472	
6	0	0	0	0	470	
7	0	0	0	0	470	
8	0	0	0	0	468	
9	0	0	0	0	465	
10	0	0	0	0	463	
11	0	0	0	0	458	
12	0	0	0	0	457	
13	0	0	0	0	453	
14	0	0	0	0	450	
15	0	0	0	0	446	
0	0	0	0	0	442	
1	0	0	0	0	439	
2	0	0	0	0	436	
3	0	0	0	0	432	
4	0	0	0	0	430	
5	0	0	0	0	425	
6	0	0	0	0	424	
7	0	0	0	0	420	
8	0	0	0	0	416	
9	0	0	0	0	414	
10	0	0	0	0	409	
11	0	0	0	0	407	
12	0	0	0	0	404	
13	0	0	0	0	401	
14	0	0	0	0	399	
15	0	0	0	0	395	
0	0	0	0	0	394	
1	0	0	0	0	390	
2	0	0	0	0	387	
3	0	0	0	0	384	
4	0	0	0	0	382	
5	0	0	0	0	380	
6	0	0	0	0	377	
7	0	0	0	0	376	
8	0	0	0	0	374	
9	0	0	0	0	371	
10	0	0	0	0	372	
11	0	0	0	0	370	
12	0	0	0	0	369	
13	0	0	0	0	368	
14	0	0	0	0	367	
15	0	0	0	0	368	
0	0	0	0	0	366	
1	0	0	0	0	365	
2	0	0	0	0	364	
3	0	0	0	0	363	
4	0	0	0	0	364	
5	0	0	0	0	364	
6	0	0	0	0	363	
7	0	0	0	0	362	
8	0	0	0	0	360	
9	0	0	0	0	360	
10	0	0	0	0	359	
11	0	0	0	0	358	
12	0	0	0	0	357	
13	0	0	0	0	355	
14	0	0	0	0	355	
15	0	0	0	0	353	
0	0	0	0	0	352	
1	0	0	0	0	351	
2	0	0	0	0	349	
3	0	0	0	0	348	
4	0	0	0	0	348	
5	0	0	0	0	347	
6	0	0	0	0	346	
7	0	0	0	0	347	
8	0	0	0	0	350	
9	0	0	0	0	353	
10	0	0	0	0	355	
11	0	0	0	0	359	
12	0	0	0	0	363	
13	0	0	0	0	368	
14	0	0	0	0	372	
15	0	0	0	0	378	
0	0	0	0	0	382	
1	0	0	0	0	386	
2	0	0	0	0	391	
3	0	0	0	0	396	
4	0	0	0	0	400	
5	0	0	0	0	406	
6	0	0	0	0	409	
7	0	0	0	0	413	
8	0	0	0	0	415	
9	0	0	0	0	417	
10	0	0	0	0	418	
11	0	0	0	0	418	
12	0	0	0	0	420	
13	0	0	0	0	420	
14	0	0	0	0	421	
15	0	0	0	0	422	
0	0	0	0	0	421	
1	0	0	0	0	422	
2	0	0	0	0	422	
3	0	0	0	0	422	
4	0	0	0	0	421	
5	0	0	0	0	421	
6	0	0	0	0	422	
7	0	0	0	0	423	
8	0	0	0	0	427	
9	0	0	0	0	431	
10	0	0	0	0	433	
11	0	0	0	0	439	
12	0	0	0	0	443	
13	0	0	0	0	447	
14	0	0	0	0	452	
15	0	0	0	0	456	
0	0	0	0	0	461	
1	0	0	0	0	466	
2	0	0	0	0	470	
3	0	0	0	0	475	
4	0	0	0	0	479	
5	0	0	0	0	485	
6	0	0	0	0	488	
7	0	0	0	0	493	
8	0	0	0	0	497	
9	0	0	0	0	501	
10	0	0	0	0	506	
11	0	0	0	0	511	
12	0	0	0	0	514	
13	0	0	0	0	520	
14	0	0	0	0	523	
15	0	0	0	0	529	
0	0	0	0	0	531	
1	0	0	0	0	536	
2	0	0	0	0	541	
3	0	0	0	0	543	
4	0	0	0	0	549	
5	0	0	0	0	552	
6	0	0	0	0	556	
7	0	0	0	0	560	
8	0	0	0	0	563	
9	0	0	0	0	568	
10	0	0	0	0	572	
11	0	0	0	0	576	
12	0	0	0	0	579	
13	0	0	0	0	583	
14	0	0	0	0	587	
15	0	0	0	0	590	
0	0	0	0	0	593	
1	0	0	0	0	597	
2	0	0	0	0	599	
3	0	0	0	0	605	
4	0	0	0	0	607	
5	0	0	0	0	610	
6	0	0	0	0	612	
7	0	0	0	0	614	
8	0	0	0	0	617	
9	0	0	0	0	616	
10	0	0	0	0	617	
11	0	0	0	0	618	
12	0	0	0	0	617	
13	0	0	0	0	619	
14	0	0	0	0	618	
15	0	0	0	0	619	
0	0	0	0	0	618	
1	0	0	0	0	617	
2	0	0	0	0	619	
3	0	0	0	0	618	
4	0	0	0	0	617	
5	0	0	0	0	618	
6	0	0	0	0	617	
7	0	0	0	0	619	
8	0	0	0	0	618	
9	0	0	0	0	618	
10	0	0	0	0	618	
11	0	0	0	0	616	
12	0	0	0	0	617	
13	0	0	0	0	615	
14	0	0	0	0	615	
15	0	0	0	0	615	
0	0	0	0	0	614	
1	0	0	0	0	615	
2	0	0	0	0	613	
3	0	0	0	0	612	
4	0	0	0	0	611	
5	0	0	0	0	610	
6	0	0	0	0	611	
7	0	0	0	0	610	
8	0	0	0	0	610	
9	0	0	0	0	609	
10	0	0	0	0	607	
11	0	0	0	0	608	
12	0	0	0	0	607	
13	0	0	0	0	607	
14	0	0	0	0	608	
15	0	0	0	0	606	
0	0	0	0	0	608	
1	0	0	0	0	607	
2	0	0	0	0	606	
3	0	0	0	0	607	
4	0	0	0	0	606	
5	0	0	0	0	607	
6	0	0	0	0	606	
7	0	0	0	0	606	
8	0	0	0	0	605	
9	0	0	0	0	604	
10	0	0	0	0	605	
11	0	0	0	0	605	
12	0	0	0	0	604	
13	0	0	0	0	604	
14	0	0	0	0	604	
15	0	0	0	0	605	
0	0	0	0	0	604	
1	0	0	0	0	604	
2	0	0	0	0	604	
3	0	0	0	0	602	
4	0	0	0	0	603	
5	0	0	0	0	602	
6	0	0	0	0	601	
7	0	0	0	0	601	
8	0	0	0	0	600	
9	0	0	0	0	601	
10	0	0	0	0	600	
11	0	0	0	0	600	
12	0	0	0	0	601	
13	0	0	0	0	600	
14	0	0	0	0	601	
15	0	0	0	0	601	
0	0	0	0	0	600	
1	0	0	0	0	600	
2	0	0	0	0	599	
3	0	0	0	0	599	
4	0	0	0	0	598	
5	0	0	0	0	598	
6	0	0	0	0	597	
7	0	0	0	0	595	
8	0	0	0	0	595	
9	0	0	0	0	595	
10	0	0	0	0	594	
11	0	0	0	0	594	
12	0	0	0	0	592	
13	0	0	0	0	593	
14	0	0	0	0	591	
15	0	0	0	0	590	
0	0	0	0	0	591	
1	0	0	0	0	589	
2	0	0	0	0	591	
3	0	0	0	0	590	
4	0	0	0	0	589	
5	0	0	0	0	588	
6	0	0	0	0	588	
7	0	0	0	0	590	
8	0	0	0	0	588	
9	0	0	0	0	588	
10	0	0	0	0	586	
11	0	0	0	0	584	
12	0	0	0	0	585	
13	0	0	0	0	583	
14	0	0	0	0	581	
15	0	0	0	0	581	
0	0	0	0	0	579	
1	0	0	0	0	579	
2	0	0	0	0	576	
3	0	0	0	0	575	
4	0	0	0	0	574	
5	0	0	0	0	571	
6	0	0	0	0	572	
7	0	0	0	0	570	
8	0	0	0	0	568	
9	0	0	0	0	568	
10	0	0	0	0	565	
11	0	0	0	0	567	
12	0	0	0	0	566	
13	0	0	0	0	564	
14	0	0	0	0	563	
15	0	0	0	0	561	
0	0	0	0	0	561	
1	0	0	0	0	558	
2	0	0	0	0	557	
3	0	0	0	0	556	
4	0	0	0	0	553	
5	0	0	0	0	553	
6	0	0	0	0	551	
7	0	0	0	0	550	
8	0	0	0	0	548	
9	0	0	0	0	546	
10	0	0	0	0	546	
11	0	0	0	0	543	
12	0	0	0	0	542	
13	0	0	0	0	540	
14	0	0	0	0	538	
15	0	0	0	0	539	
0	0	0	0	0	537	
1	0	0	0	0	536	
2	0	0	0	0	535	
3	0	0	0	0	532	
4	0	0	0	0	532	
5	0	0	0	0	530	
6	0	0	0	0	528	
7	0	0	0	0	527	
8	0	0	0	0	523	
9	0	0	0	0	523	
10	0	0	0	0	520	
11	0	0	0	0	517	
12	0	0	0	0	515	
13	0	0	0	0	512	
14	0	0	0	0	511	
15	0	0	0	0	508	
0	0	0	0	0	506	
1	0	0	0	0	503	
2	0	0	0	0	499	
3	0	0	0	0	498	
4	0	0	0	0	496	
5	0	0	0	0	493	
6	0	0	0	0	491	
7	0	0	0	0	488	
8	0	0	0	0	487	
9	0	0	0	0	485	
10	0	0	0	0	483	
11	0	0	0	0	481	
12	0	0	0	0	478	
13	0	0	0	0	478	
14	0	0	0	0	475	
15	0	0	0	0	474	
0	0	0	0	0	472	
1	0	0	0	0	471	
2	0	0	0	0	472	
3	0	0	0	0	469	
4	0	0	0	0	468	
5	0	0	0	0	468	
6	0	0	0	0	467	
7	0	0	0	0	467	
8	0	0	0	0	467	
9	0	0	0	0	467	
10	0	0	0	0	467	
11	0	0	0	0	464	
12	0	0	0	0	466	
13	0	0	0	0	464	
14	0	0	0	0	464	
15	0	0	0	0	463	
0	0	0	0	0	462	
1	0	0	0	0	463	
2	0	0	0	0	462	
3	0	0	0	0	461	
4	0	0	0	0	461	
5	0	0	0	0	460	
6	0	0	0	0	461	
7	0	0	0	0	460	
8	0	0	0	0	460	
9	0	0	0	0	461	
10	0	0	0	0	460	
11	0	0	0	0	462	
12	0	0	0	0	462	
13	0	0	0	0	462	
14	0	0	0	0	462	
15	0	0	0	0	463	
0	0	0	0	0	464	
1	0	0	0	0	463	
2	0	0	0	0	463	
3	0	0	0	0	463	
4	0	0	0	0	463	
5	0	0	0	0	465	
6	0	0	0	0	465	
7	0	0	0	0	465	
8	0	0	0	0	466	
9	0	0	0	0	466	
10	0	0	0	0	468	
11	0	0	0	0	467	
12	0	0	0	0	467	
13	0	0	0	0	468	
14	0	0	0	0	468	
15	0	0	0	0	470	
0	0	0	0	0	470	
1	0	0	0	0	471	
2	0	0	0	0	471	
3	0	0	0	0	470	
4	0	0	0	0	471	
5	0	0	0	0	471	
6	0	0	0	0	472	
7	0	0	0	0	472	
8	0	0	0	0	470	
9	0	0	0	0	472	
10	0	0	0	0	472	
11	0	0	0	0	473	
12	0	0	0	0	472	
13	0	0	0	0	473	
14	0	0	0	0	474	
15	0	0	0	0	472	
0	0	0	0	0	470	
1	0	0	0	0	468	
2	0	0	0	0	465	
3	0	0	0	0	463	
4	0	0	0	0	460	
5	0	0	0	0	456	
6	0	0	0	0	452	
7	0	0	0	0	448	
8	0	0	0	0	446	
9	0	0	0	0	442	
10	0	0	0	0	438	
11	0	0	0	0	435	
12	0	0	0	0	432	
13	0	0	0	0	429	
14	0	0	0	0	426	
15	0	0	0	0	422	
0	0	0	0	0	419	
1	0	0	0	0	415	
2	0	0	0	0	414	
3	0	0	0	0	409	
4	0	0	0	0	406	
5	0	0	0	0	403	
6	0	0	0	0	399	
7	0	0	0	0	397	
8	0	0	0	0	394	
9	0	0	0	0	391	
10	0	0	0	0	388	
11	0	0	0	0	384	
12	0	0	0	0	383	
13	0	0	0	0	379	
14	0	0	0	0	377	
15	0	0	0	0	375	
0	0	0	0	0	373	
1	0	0	0	0	373	
2	0	0	0	0	371	
3	0	0	0	0	369	
4	0	0	0	0	369	
5	0	0	0	0	368	
6	0	0	0	0	368	
7	0	0	0	0	366	
8	0	0	0	0	365	
9	0	0	0	0	364	
10	0	0	0	0	364	
11	0	0	0	0	364	
12	0	0	0	0	364	
13	0	0	0	0	363	
14	0	0	0	0	363	
15	0	0	0	0	360	
0	0	0	0	0	361	
1	0	0	0	0	359	
2	0	0	0	0	359	
3	0	0	0	0	358	
4	0	0	0	0	357	
5	0	0	0	0	356	
6	0	0	0	0	355	
7	0	0	0	0	354	
8	0	0	0	0	352	
9	0	0	0	0	351	
10	0	0	0	0	351	
11	0	0	0	0	349	
12	0	0	0	0	348	
13	0	0	0	0	347	
14	0	0	0	0	346	
15	0	0	0	0	349	
0	0	0	0	0	350	
1	0	0	0	0	353	
2	0	0	0	0	356	
3	0	0	0	0	360	
4	0	0	0	0	364	
5	0	0	0	0	368	
6	0	0	0	0	372	
7	0	0	0	0	377	
8	0	0	0	0	381	
9	0	0	0	0	387	
10	0	0	0	0	390	
11	0	0	0	0	395	
12	0	0	0	0	399	
13	0	0	0	0	403	
14	0	0	0	0	409	
15	0	0	0	0	411	
0	0	0	0	0	413	
1	0	0	0	0	415	
2	0	0	0	0	415	
3	0	0	0	0	418	
4	0	0	0	0	418	
5	0	0	0	0	418	
6	0	0	0	0	419	
7	0	0	0	0	419	
8	0	0	0	0	420	
9	0	0	0	0	419	
10	0	0	0	0	419	
11	0	0	0	0	420	
12	0	0	0	0	419	
13	0	0	0	0	421	
14	0	0	0	0	420	
15	0	0	0	0	423	
0	0	0	0	0	425	
1	0	0	0	0	429	
2	0	0	0	0	434	
3	0	0	0	0	437	
4	0	0	0	0	441	
5	0	0	0	0	447	
6	0	0	0	0	451	
7	0	0	0	0	458	
8	0	0	0	0	461	
9	0	0	0	0	465	
10	0	0	0	0	470	
11	0	0	0	0	474	
12	0	0	0	0	479	
13	0	0	0	0	483	
14	0	0	0	0	487	
15	0	0	0	0	492	
0	0	0	0	0	496	
1	0	0	0	0	502	
2	0	0	0	0	505	
3	0	0	0	0	510	
4	0	0	0	0	515	
5	0	0	0	0	519	
6	0	0	0	0	524	
7	0	0	0	0	528	
8	0	0	0	0	532	
9	0	0	0	0	537	
10	0	0	0	0	540	
11	0	0	0	0	545	
12	0	0	0	0	547	
13	0	0	0	0	551	
14	0	0	0	0	556	
15	0	0	0	0	560	
0	0	0	0	0	565	
1	0	0	0	0	568	
2	0	0	0	0	571	
3	0	0	0	0	575	
4	0	0	0	0	578	
5	0	0	0	0	583	
6	0	0	0	0	586	
7	0	0	0	0	589	
8	0	0	0	0	593	
9	0	0	0	0	595	
10	0	0	0	0	600	
11	0	0	0	0	603	
12	0	0	0	0	606	
13	0	0	0	0	609	
14	0	0	0	0	611	
15	0	0	0	0	614	
0	0	0	0	0	615	
1	0	0	0	0	615	
2	0	0	0	0	617	
3	0	0	0	0	616	
4	0	0	0	0	618	
5	0	0	0	0	617	
6	0	0	0	0	617	
7	0	0	0	0	618	
8	0	0	0	0	617	
9	0	0	0	0	618	
10	0	0	0	0	617	
11	0	0	0	0	617	
12	0	0	0	0	617	
13	0	0	0	0	617	
14	0	0	0	0	618	
15	0	0	0	0	617	
0	0	0	0	0	617	
1	0	0	0	0	616	
2	0	0	0	0	615	
3	0	0	0	0	617	
4	0	0	0	0	615	
5	0	0	0	0	615	
6	0	0	0	0	615	
7	0	0	0	0	614	
8	0	0	0	0	615	
9	0	0	0	0	614	
10	0	0	0	0	612	
11	0	0	0	0	612	
12	0	0	0	0	611	
13	0	0	0	0	613	
14	0	0	0	0	612	
15	0	0	0	0	613	
0	0	0	0	0	611	
1	0	0	0	0	610	
2	0	0	0	0	611	
3	0	0	0	0	610	
4	0	0	0	0	610	
5	0	0	0	0	610	
6	0	0	0	0	608	
7	0	0	0	0	610	
8	0	0	0	0	608	
9	0	0	0	0	608	
10	0	0	0	0	608	
11	0	0	0	0	606	
12	0	0	0	0	607	
13	0	0	0	0	605	
14	0	0	0	0	605	
15	0	0	0	0	606	
0	0	0	0	0	604	
1	0	0	0	0	606	
2	0	0	0	0	604	
3	0	0	0	0	604	
4	0	0	0	0	604	
5	0	0	0	0	603	
6	0	0	0	0	604	
7	0	0	0	0	604	
8	0	0	0	0	603	
9	0	0	0	0	604	
10	0	0	0	0	602	
11	0	0	0	0	603	
12	0	0	0	0	601	
13	0	0	0	0	601	
14	0	0	0	0	601	
15	0	0	0	0	601	
0	0	0	0	0	602	
1	0	0	0	0	601	
2	0	0	0	0	601	
3	0	0	0	0	600	
4	0	0	0	0	600	
5	0	0	0	0	601	
6	0	0	0	0	600	
7	0	0	0	0	600	
8	0	0	0	0	600	
9	0	0	0	0	599	
10	0	0	0	0	600	
11	0	0	0	0	599	
12	0	0	0	0	598	
13	0	0	0	0	598	
14	0	0	0	0	596	
15	0	0	0	0	598	
0	0	0	0	0	596	
1	0	0	0	0	595	
2	0	0	0	0	595	
3	0	0	0	0	594	
4	0	0	0	0	595	
5	0	0	0	0	593	
6	0	0	0	0	592	
7	0	0	0	0	592	
8	0	0	0	0	590	
9	0	0	0	0	592	
10	0	0	0	0	591	
11	0	0	0	0	590	
12	0	0	0	0	589	
13	0	0	0	0	588	
14	0	0	0	0	589	
15	0	0	0	0	588	
0	0	0	0	0	587	
1	0	0	0	0	587	
2	0	0	0	0	584	
3	0	0	0	0	585	
4	0	0	0	0	583	
5	0	0	0	0	582	
6	0	0	0	0	580	
7	0	0	0	0	578	
8	0	0	0	0	579	
9	0	0	0	0	576	
10	0	0	0	0	575	
11	0	0	0	0	574	
12	0	0	0	0	572	
13	0	0	0	0	573	
14	0	0	0	0	571	
15	0	0	0	0	569	
0	0	0	0	0	569	
1	0	0	0	0	567	
2	0	0	0	0	568	
3	0	0	0	0	566	
4	0	0	0	0	565	
5	0	0	0	0	564	
6	0	0	0	0	563	
7	0	0	0	0	563	
8	0	0	0	0	561	
9	0	0	0	0	560	
10	0	0	0	0	559	
11	0	0	0	0	556	
12	0	0	0	0	556	
13	0	0	0	0	554	
14	0	0	0	0	552	
15	0	0	0	0	551	
0	0	0	0	0	550	
1	0	0	0	0	550	
2	0	0	0	0	547	
3	0	0	0	0	545	
4	0	0	0	0	543	
5	0	0	0	0	541	
6	0	0	0	0	542	
7	0	0	0	0	539	
8	0	0	0	0	538	
9	0	0	0	0	536	
10	0	0	0	0	532	
11	0	0	0	0	532	
12	0	0	0	0	531	
13	0	0	0	0	529	
14	0	0	0	0	528	
15	0	0	0	0	525	
0	0	0	0	0	525	
1	0	0	0	0	521	
2	0	0	0	0	519	
3	0	0	0	0	516	
4	0	0	0	0	514	
5	0	0	0	0	513	
6	0	0	0	0	510	
7	0	0	0	0	508	
8	0	0	0	0	505	
9	0	0	0	0	503	
10	0	0	0	0	502	
11	0	0	0	0	499	
12	0	0	0	0	496	
13	0	0	0	0	493	
14	0	0	0	0	491	
15	0	0	0	0	491	
0	0	0	0	0	487	
1	0	0	0	0	484	
2	0	0	0	0	482	
3	0	0	0	0	480	
4	0	0	0	0	479	
5	0	0	0	0	476	
6	0	0	0	0	473	
7	0	0	0	0	472	
8	0	0	0	0	471	
9	0	0	0	0	472	
10	0	0	0	0	470	
11	0	0	0	0	469	
12	0	0	0	0	468	
13	0	0	0	0	468	
14	0	0	0	0	469	
15	0	0	0	0	468	
0	0	0	0	0	467	
1	0	0	0	0	466	
2	0	0	0	0	465	
3	0	0	0	0	467	
4	0	0	0	0	465	
5	0	0	0	0	465	
6	0	0	0	0	464	
7	0	0	0	0	463	
8	0	0	0	0	464	
9	0	0	0	0	463	
10	0	0	0	0	463	
11	0	0	0	0	463	
12	0	0	0	0	462	
13	0	0	0	0	463	
14	0	0	0	0	462	
15	0	0	0	0	461	
0	0	0	0	0	462	
1	0	0	0	0	461	
2	0	0	0	0	462	
3	0	0	0	0	462	
4	0	0	0	0	462	
5	0	0	0	0	462	
6	0	0	0	0	462	
7	0	0	0	0	463	
8	0	0	0	0	462	
9	0	0	0	0	462	
10	0	0	0	0	462	
11	0	0	0	0	462	
12	0	0	0	0	463	
13	0	0	0	0	464	
14	0	0	0	0	464	
15	0	0	0	0	464	
0	0	0	0	0	464	
1	0	0	0	0	466	
2	0	0	0	0	465	
3	0	0	0	0	464	
4	0	0	0	0	465	
5	0	0	0	0	465	
6	0	0	0	0	466	
7	0	0	0	0	467	
8	0	0	0	0	467	
9	0	0	0	0	467	
10	0	0	0	0	467	
11	0	0	0	0	469	
12	0	0	0	0	468	
13	0	0	0	0	469	
14	0	0	0	0	469	
15	0	0	0	0	468	
0	0	0	0	0	470	
1	0	0	0	0	470	
2	0	0	0	0	471	
3	0	0	0	0	472	
4	0	0	0	0	472	
5	0	0	0	0	472	
6	0	0	0	0	472	
7	0	0	0	0	471	
8	0	0	0	0	469	
9	0	0	0	0	465	
10	0	0	0	0	464	
11	0	0	0	0	460	
12	0	0	0	0	457	
13	0	0	0	0	454	
14	0	0	0	0	451	
15	0	0	0	0	449	
0	0	0	0	0	445	
1	0	0	0	0	441	
2	0	0	0	0	438	
3	0	0	0	0	434	
4	0	0	0	0	433	
5	0	0	0	0	428	
6	0	0	0	0	425	
7	0	0	0	0	422	
8	0	0	0	0	417	
9	0	0	0	0	415	
10	0	0	0	0	412	
11	0	0	0	0	408	
12	0	0	0	0	406	
13	0	0	0	0	402	
14	0	0	0	0	400	
15	0	0	0	0	397	
0	0	0	0	0	394	
1	0	0	0	0	392	
2	0	0	0	0	388	
3	0	0	0	0	386	
4	0	0	0	0	383	
5	0	0	0	0	380	
6	0	0	0	0	378	
7	0	0	0	0	376	
8	0	0	0	0	375	
9	0	0	0	0	374	
10	0	0	0	0	372	
11	0	0	0	0	371	
12	0	0	0	0	370	
13	0	0	0	0	371	
14	0	0	0	0	370	
15	0	0	0	0	368	
0	0	0	0	0	368	
1	0	0	0	0	367	
2	0	0	0	0	368	
3	0	0	0	0	367	
4	0	0	0	0	366	
5	0	0	0	0	365	
6	0	0	0	0	364	
7	0	0	0	0	364	
8	0	0	0	0	363	
9	0	0	0	0	360	
10	0	0	0	0	359	
11	0	0	0	0	358	
12	0	0	0	0	358	
13	0	0	0	0	356	
14	0	0	0	0	356	
15	0	0	0	0	355	
0	0	0	0	0	352	
1	0	0	0	0	352	
2	0	0	0	0	351	
3	0	0	0	0	350	
4	0	0	0	0	349	
5	0	0	0	0	347	
6	0	0	0	0	348	
7	0	0	0	0	349	
8	0	0	0	0	351	
9	0	0	0	0	354	
10	0	0	0	0	357	
11	0	0	0	0	361	
12	0	0	0	0	365	
13	0	0	0	0	369	
14	0	0	0	0	374	
15	0	0	0	0	377	
0	0	0	0	0	383	
1	0	0	0	0	387	
2	0	0	0	0	391	
3	0	0	0	0	396	
4	0	0	0	0	400	
5	0	0	0	0	406	
6	0	0	0	0	409	
7	0	0	0	0	412	
8	0	0	0	0	414	
9	0	0	0	0	415	
10	0	0	0	0	417	
11	0	0	0	0	417	
12	0	0	0	0	418	
13	0	0	0	0	419	
14	0	0	0	0	419	
15	0	0	0	0	421	
0	0	0	0	0	420	
1	0	0	0	0	421	
2	0	0	0	0	421	
3	0	0	0	0	420	
4	0	0	0	0	422	
5	0	0	0	0	421	
6	0	0	0	0	422	
7	0	0	0	0	424	
8	0	0	0	0	426	
9	0	0	0	0	431	
10	0	0	0	0	433	
11	0	0	0	0	438	
12	0	0	0	0	442	
13	0	0	0	0	446	
14	0	0	0	0	451	
15	0	0	0	0	456	
0	0	0	0	0	460	
1	0	0	0	0	465	
2	0	0	0	0	470	
3	0	0	0	0	477	
4	0	0	0	0	479	
5	0	0	0	0	484	
6	0	0	0	0	488	
7	0	0	0	0	493	
8	0	0	0	0	499	
9	0	0	0	0	503	
10	0	0	0	0	508	
11	0	0	0	0	512	
12	0	0	0	0	515	
13	0	0	0	0	522	
14	0	0	0	0	524	
15	0	0	0	0	528	
0	0	0	0	0	531	
1	0	0	0	0	535	
2	0	0	0	0	540	
3	0	0	0	0	544	
4	0	0	0	0	549	
5	0	0	0	0	553	
6	0	0	0	0	556	
7	0	0	0	0	561	
8	0	0	0	0	565	
9	0	0	0	0	569	
10	0	0	0	0	573	
11	0	0	0	0	575	
12	0	0	0	0	579	
13	0	0	0	0	583	
14	0	0	0	0	586	
15	0	0	0	0	591	
0	0	0	0	0	592	
1	0	0	0	0	598	
2	0	0	0	0	600	
3	0	0	0	0	604	
4	0	0	0	0	607	
5	0	0	0	0	609	
6	0	0	0	0	614	
7	0	0	0	0	615	
8	0	0	0	0	616	
9	0	0	0	0	617	
10	0	0	0	0	617	
11	0	0	0	0	619	
12	0	0	0	0	618	
13	0	0	0	0	618	
14	0	0	0	0	618	
15	0	0	0	0	618	
0	0	0	0	0	620	
1	0	0	0	0	619	
2	0	0	0	0	618	
3	0	0	0	0	617	
4	0	0	0	0	616	
5	0	0	0	0	618	
6	0	0	0	0	616	
7	0	0	0	0	615	
8	0	0	0	0	615	
9	0	0	0	0	615	
10	0	0	0	0	617	
11	0	0	0	0	615	
12	0	0	0	0	615	
13	0	0	0	0	615	
14	0	0	0	0	615	
15	0	0	0	0	616	
0	0	0	0	0	614	
1	0	0	0	0	614	
2	0	0	0	0	614	
3	0	0	0	0	612	
4	0	0	0	0	614	
5	0	0	0	0	612	
6	0	0	0	0	612	
7	0	0	0	0	611	
8	0	0	0	0	609	
9	0	0	0	0	609	
10	0	0	0	0	609	
11	0	0	0	0	609	
12	0	0	0	0	608	
13	0	0	0	0	608	
14	0	0	0	0	609	
15	0	0	0	0	608	
0	0	0	0	0	607	
1	0	0	0	0	607	
2	0	0	0	0	605	
3	0	0	0	0	607	
4	0	0	0	0	605	
5	0	0	0	0	605	
6	0	0	0	0	605	
7	0	0	0	0	603	
8	0	0	0	0	605	
9	0	0	0	0	604	
10	0	0	0	0	604	
11	0	0	0	0	604	
12	0	0	0	0	603	
13	0	0	0	0	605	
14	0	0	0	0	604	
15	0	0	0	0	604	
0	0	0	0	0	604	
1	0	0	0	0	601	
2	0	0	0	0	603	
3	0	0	0	0	602	
4	0	0	0	0	601	
5	0	0	0	0	602	
6	0	0	0	0	600	
7	0	0	0	0	603	
8	0	0	0	0	601	
9	0	0	0	0	601	
10	0	0	0	0	602	
11	0	0	0	0	600	
12	0	0	0	0	602	
13	0	0	0	0	601	
14	0	0	0	0	601	
15	0	0	0	0	601	
0	0	0	0	0	599	
1	0	0	0	0	600	
2	0	0	0	0	599	
3	0	0	0	0	598	
4	0	0	0	0	598	
5	0	0	0	0	597	
6	0	0	0	0	598	
7	0	0	0	0	597	
8	0	0	0	0	596	
9	0	0	0	0	595	
10	0	0	0	0	594	
11	0	0	0	0	595	
12	0	0	0	0	593	
13	0	0	0	0	592	
14	0	0	0	0	593	
15	0	0	0	0	591	
0	0	0	0	0	593	
1	0	0	0	0	592	
2	0	0	0	0	591	
3	0	0	0	0	591	
4	0	0	0	0	589	
5	0	0	0	0	591	
6	0	0	0	0	589	
7	0	0	0	0	588	
8	0	0	0	0	588	
9	0	0	0	0	586	
10	0	0	0	0	587	
11	0	0	0	0	585	
12	0	0	0	0	583	
13	0	0	0	0	582	
14	0	0	0	0	580	
15	0	0	0	0	582	
0	0	0	0	0	579	
1	0	0	0	0	578	
2	0	0	0	0	578	
3	0	0	0	0	575	
4	0	0	0	0	576	
5	0	0	0	0	575	
6	0	0	0	0	573	
7	0	0	0	0	572	
8	0	0	0	0	569	
9	0	0	0	0	569	
10	0	0	0	0	566	
11	0	0	0	0	568	
12	0	0	0	0	567	
13	0	0	0	0	564	
14	0	0	0	0	565	
15	0	0	0	0	563	
0	0	0	0	0	561	
1	0	0	0	0	560	
2	0	0	0	0	557	
3	0	0	0	0	557	
4	0	0	0	0	555	
5	0	0	0	0	553	
6	0	0	0	0	552	
7	0	0	0	0	550	
8	0	0	0	0	549	
9	0	0	0	0	547	
10	0	0	0	0	546	
11	0	0	0	0	545	
12	0	0	0	0	542	
13	0	0	0	0	542	
14	0	0	0	0	540	
15	0	0	0	0	539	
0	0	0	0	0	537	
1	0	0	0	0	536	
2	0	0	0	0	535	
3	0	0	0	0	533	
4	0	0	0	0	532	
5	0	0	0	0	530	
6	0	0	0	0	528	
7	0	0	0	0	528	
8	0	0	0	0	525	
9	0	0	0	0	524	
10	0	0	0	0	521	
11	0	0	0	0	518	
12	0	0	0	0	517	
13	0	0	0	0	514	
14	0	0	0	0	512	
15	0	0	0	0	509	
0	0	0	0	0	506	
1	0	0	0	0	505	
2	0	0	0	0	502	
3	0	0	0	0	500	
4	0	0	0	0	497	
5	0	0	0	0	494	
6	0	0	0	0	494	
7	0	0	0	0	491	
8	0	0	0	0	488	
9	0	0	0	0	485	
10	0	0	0	0	482	
11	0	0	0	0	482	
12	0	0	0	0	479	
13	0	0	0	0	477	
14	0	0	0	0	475	
15	0	0	0	0	473	
0	0	0	0	0	473	
1	0	0	0	0	472	
2	0	0	0	0	470	
3	0	0	0	0	469	
4	0	0	0	0	468	
5	0	0	0	0	468	
6	0	0	0	0	467	
7	0	0	0	0	467	
8	0	0	0	0	466	
9	0	0	0	0	465	
10	0	0	0	0	466	
11	0	0	0	0	464	
12	0	0	0	0	464	
13	0	0	0	0	464	
14	0	0	0	0	462	
15	0	0	0	0	463	
0	0	0	0	0	462	
1	0	0	0	0	462	
2	0	0	0	0	462	
3	0	0	0	0	460	
4	0	0	0	0	461	
5	0	0	0	0	460	
6	0	0	0	0	460	
7	0	0	0	0	459	
8	0	0	0	0	459	
9	0	0	0	0	460	
10	0	0	0	0	460	
11	0	0	0	0	460	
12	0	0	0	0	460	
13	0	0	0	0	460	
14	0	0	0	0	461	
15	0	0	0	0	461	
0	0	0	0	0	462	
1	0	0	0	0	462	
2	0	0	0	0	461	
3	0	0	0	0	463	
4	0	0	0	0	463	
5	0	0	0	0	463	
6	0	0	0	0	463	
7	0	0	0	0	464	
8	0	0	0	0	465	
9	0	0	0	0	464	
10	0	0	0	0	465	
11	0	0	0	0	466	
12	0	0	0	0	466	
13	0	0	0	0	468	
14	0	0	0	0	467	
15	0	0	0	0	468	
0	0	0	0	0	468	
1	0	0	0	0	468	
2	0	0	0	0	469	
3	0	0	0	0	469	
4	0	0	0	0	470	
5	0	0	0	0	470	
6	0	0	0	0	469	
7	0	0	0	0	471	
8	0	0	0	0	471	
9	0	0	0	0	471	
10	0	0	0	0	471	
11	0	0	0	0	471	
12	0	0	0	0	472	
13	0	0	0	0	472	
14	0	0	0	0	472	
15	0	0	0	0	470	
0	0	0	0	0	467	
1	0	0	0	0	465	
2	0	0	0	0	463	
3	0	0	0	0	460	
4	0	0	0	0	457	
5	0	0	0	0	453	
6	0	0	0	0	451	
7	0	0	0	0	448	
8	0	0	0	0	444	
9	0	0	0	0	440	
10	0	0	0	0	436	
11	0	0	0	0	435	
12	0	0	0	0	430	
13	0	0	0	0	427	
14	0	0	0	0	423	
15	0	0	0	0	419	
0	0	0	0	0	417	
1	0	0	0	0	413	
2	0	0	0	0	410	
3	0	0	0	0	407	
4	0	0	0	0	403	
5	0	0	0	0	402	
6	0	0	0	0	399	
7	0	0	0	0	395	
8	0	0	0	0	392	
9	0	0	0	0	388	
10	0	0	0	0	387	
11	0	0	0	0	384	
12	0	0	0	0	382	
13	0	0	0	0	379	
14	0	0	0	0	376	
15	0	0	0	0	374	
0	0	0	0	0	373	
1	0	0	0	0	371	
2	0	0	0	0	371	
3	0	0	0	0	369	
4	0	0	0	0	370	
5	0	0	0	0	368	
6	0	0	0	0	368	
7	0	0	0	0	368	
8	0	0	0	0	367	
9	0	0	0	0	367	
10	0	0	0	0	366	
11	0	0	0	0	365	
12	0	0	0	0	364	
13	0	0	0	0	363	
14	0	0	0	0	364	
15	0	0	0	0	364	
0	0	0	0	0	362	
1	0	0	0	0	360	
2	0	0	0	0	358	
3	0	0	0	0	358	
4	0	0	0	0	357	
5	0	0	0	0	356	
6	0	0	0	0	355	
7	0	0	0	0	353	
8	0	0	0	0	353	
9	0	0	0	0	351	
10	0	0	0	0	351	
11	0	0	0	0	350	
12	0	0	0	0	347	
13	0	0	0	0	348	
14	0	0	0	0	347	
15	0	0	0	0	347	
0	0	0	0	0	350	
1	0	0	0	0	353	
2	0	0	0	0	357	
3	0	0	0	0	361	
4	0	0	0	0	366	
5	0	0	0	0	370	
6	0	0	0	0	374	
7	0	0	0	0	380	
8	0	0	0	0	384	
9	0	0	0	0	388	
10	0	0	0	0	393	
11	0	0	0	0	397	
12	0	0	0	0	402	
13	0	0	0	0	406	
14	0	0	0	0	410	
15	0	0	0	0	414	
0	0	0	0	0	414	
1	0	0	0	0	417	
2	0	0	0	0	418	
3	0	0	0	0	419	
4	0	0	0	0	419	
5	0	0	0	0	420	
6	0	0	0	0	422	
7	0	0	0	0	422	
8	0	0	0	0	421	
9	0	0	0	0	422	
10	0	0	0	0	421	
11	0	0	0	0	422	
12	0	0	0	0	422	
13	0	0	0	0	421	
14	0	0	0	0	422	
15	0	0	0	0	423	
0	0	0	0	0	428	
1	0	0	0	0	431	
2	0	0	0	0	433	
3	0	0	0	0	438	
4	0	0	0	0	442	
5	0	0	0	0	448	
6	0	0	0	0	451	
7	0	0	0	0	456	
8	0	0	0	0	460	
9	0	0	0	0	465	
10	0	0	0	0	470	
11	0	0	0	0	474	
12	0	0	0	0	478	
13	0	0	0	0	483	
14	0	0	0	0	487	
15	0	0	0	0	494	
0	0	0	0	0	497	
1	0	0	0	0	502	
2	0	0	0	0	506	
3	0	0	0	0	510	
4	0	0	0	0	515	
5	0	0	0	0	519	
6	0	0	0	0	523	
7	0	0	0	0	528	
8	0	0	0	0	531	
9	0	0	0	0	537	
10	0	0	0	0	540	
11	0	0	0	0	545	
12	0	0	0	0	549	
13	0	0	0	0	552	
14	0	0	0	0	558	
15	0	0	0	0	560	
0	0	0	0	0	563	
1	0	0	0	0	569	
2	0	0	0	0	571	
3	0	0	0	0	577	
4	0	0	0	0	579	
5	0	0	0	0	583	
6	0	0	0	0	585	
7	0	0	0	0	589	
8	0	0	0	0	594	
9	0	0	0	0	596	
10	0	0	0	0	600	
11	0	0	0	0	604	
12	0	0	0	0	606	
13	0	0	0	0	611	
14	0	0	0	0	612	
15	0	0	0	0	614	
0	0	0	0	0	615	
1	0	0	0	0	615	
2	0	0	0	0	617	
3	0	0	0	0	618	
4	0	0	0	0	618	
5	0	0	0	0	619	
6	0	0	0	0	618	
7	0	0	0	0	620	
8	0	0	0	0	618	
9	0	0	0	0	618	
10	0	0	0	0	617	
11	0	0	0	0	616	
12	0	0	0	0	618	
13	0	0	0	0	617	
14	0	0	0	0	616	
15	0	0	0	0	615	
0	0	0	0	0	615	
1	0	0	0	0	616	
2	0	0	0	0	615	
3	0	0	0	0	615	
4	0	0	0	0	615	
5	0	0	0	0	614	
6	0	0	0	0	615	
7	0	0	0	0	614	
8	0	0	0	0	614	
9	0	0	0	0	615	
10	0	0	0	0	613	
11	0	0	0	0	614	
12	0	0	0	0	612	
13	0	0	0	0	612	
14	0	0	0	0	611	
15	0	0	0	0	610	
0	0	0	0	0	611	
1	0	0	0	0	610	
2	0	0	0	0	610	
3	0	0	0	0	609	
4	0	0	0	0	608	
5	0	0	0	0	610	
6	0	0	0	0	608	
7	0	0	0	0	607	
8	0	0	0	0	608	
9	0	0	0	0	606	
10	0	0	0	0	607	
11	0	0	0	0	606	
12	0	0	0	0	606	
13	0	0	0	0	606	
14	0	0	0	0	604	
15	0	0	0	0	606	
0	0	0	0	0	604	
1	0	0	0	0	603	
2	0	0	0	0	603	
3	0	0	0	0	601	
4	0	0	0	0	603	
5	0	0	0	0	602	
6	0	0	0	0	601	
7	0	0	0	0	602	
8	0	0	0	0	601	
9	0	0	0	0	603	
10	0	0	0	0	601	
11	0	0	0	0	602	
12	0	0	0	0	601	
13	0	0	0	0	601	
14	0	0	0	0	603	
15	0	0	0	0	601	
0	0	0	0	0	601	
1	0	0	0	0	603	
2	0	0	0	0	600	
3	0	0	0	0	603	
4	0	0	0	0	601	
5	0	0	0	0	601	
6	0	0	0	0	601	
7	0	0	0	0	600	
8	0	0	0	0	601	
9	0	0	0	0	600	
10	0	0	0	0	600	
11	0	0	0	0	600	
12	0	0	0	0	598	
13	0	0	0	0	600	
14	0	0	0	0	598	
15	0	0	0	0	597	
0	0	0	0	0	598	
1	0	0	0	0	596	
2	0	0	0	0	597	
3	0	0	0	0	595	
4	0	0	0	0	595	
5	0	0	0	0	594	
6	0	0	0	0	593	
7	0	0	0	0	594	
8	0	0	0	0	593	
9	0	0	0	0	593	
10	0	0	0	0	593	
11	0	0	0	0	591	
12	0	0	0	0	591	
13	0	0	0	0	590	
14	0	0	0	0	589	
15	0	0	0	0	589	
0	0	0	0	0	587	
1	0	0	0	0	588	
2	0	0	0	0	586	
3	0	0	0	0	585	
4	0	0	0	0	585	
5	0	0	0	0	582	
6	0	0	0	0	583	
7	0	0	0	0	581	
8	0	0	0	0	580	
9	0	0	0	0	579	
10	0	0	0	0	576	
11	0	0	0	0	577	
12	0	0	0	0	575	
13	0	0	0	0	573	
14	0	0	0	0	572	
15	0	0	0	0	571	
0	0	0	0	0	571	
1	0	0	0	0	570	
2	0	0	0	0	569	
3	0	0	0	0	568	
4	0	0	0	0	565	
5	0	0	0	0	566	
6	0	0	0	0	564	
7	0	0	0	0	562	
8	0	0	0	0	561	
9	0	0	0	0	558	
10	0	0	0	0	558	
11	0	0	0	0	555	
12	0	0	0	0	555	
13	0	0	0	0	553	
14	0	0	0	0	551	
15	0	0	0	0	551	
0	0	0	0	0	547	
1	0	0	0	0	546	
2	0	0	0	0	545	
3	0	0	0	0	543	
4	0	0	0	0	543	
5	0	0	0	0	541	
6	0	0	0	0	540	
7	0	0	0	0	537	
8	0	0	0	0	535	
9	0	0	0	0	535	
10	0	0	0	0	533	
11	0	0	0	0	532	
12	0	0	0	0	531	
13	0	0	0	0	529	
14	0	0	0	0	529	
15	0	0	0	0	526	
0	0	0	0	0	524	
1	0	0	0	0	522	
2	0	0	0	0	519	
3	0	0	0	0	518	
4	0	0	0	0	515	
5	0	0	0	0	512	
6	0	0	0	0	510	
7	0	0	0	0	507	
8	0	0	0	0	507	
9	0	0	0	0	503	
10	0	0	0	0	501	
11	0	0	0	0	499	
12	0	0	0	0	496	
13	0	0	0	0	495	
14	0	0	0	0	492	
15	0	0	0	0	490	
0	0	0	0	0	488	
1	0	0	0	0	485	
2	0	0	0	0	484	
3	0	0	0	0	480	
4	0	0	0	0	478	
5	0	0	0	0	476	
6	0	0	0	0	473	
7	0	0	0	0	473	
8	0	0	0	0	471	
9	0	0	0	0	470	
10	0	0	0	0	469	
11	0	0	0	0	467	
12	0	0	0	0	468	
13	0	0	0	0	467	
14	0	0	0	0	467	
15	0	0	0	0	466	
0	0	0	0	0	465	
1	0	0	0	0	467	
2	0	0	0	0	466	
3	0	0	0	0	465	
4	0	0	0	0	465	
5	0	0	0	0	464	
6	0	0	0	0	465	
7	0	0	0	0	463	
8	0	0	0	0	463	
9	0	0	0	0	462	
10	0	0	0	0	460	
11	0	0	0	0	463	
12	0	0	0	0	461	
13	0	0	0	0	461	
14	0	0	0	0	461	
15	0	0	0	0	460	
0	0	0	0	0	461	
1	0	0	0	0	460	
2	0	0	0	0	460	
3	0	0	0	0	460	
4	0	0	0	0	459	
5	0	0	0	0	462	
6	0	0	0	0	460	
7	0	0	0	0	460	
8	0	0	0	0	461	
9	0	0	0	0	461	
10	0	0	0	0	463	
11	0	0	0	0	463	
12	0	0	0	0	463	
13	0	0	0	0	464	
14	0	0	0	0	463	
15	0	0	0	0	465	
0	0	0	0	0	464	
1	0	0	0	0	465	
2	0	0	0	0	465	
3	0	0	0	0	464	
4	0	0	0	0	466	
5	0	0	0	0	466	
6	0	0	0	0	467	
7	0	0	0	0	467	
8	0	0	0	0	466	
9	0	0	0	0	468	
10	0	0	0	0	467	
11	0	0	0	0	467	
12	0	0	0	0	468	
13	0	0	0	0	468	
14	0	0	0	0	471	
15	0	0	0	0	470	
0	0	0	0	0	471	
1	0	0	0	0	471	
2	0	0	0	0	470	
3	0	0	0	0	472	
4	0	0	0	0	471	
5	0	0	0	0	472	
6	0	0	0	0	472	
7	0	0	0	0	469	
8	0	0	0	0	469	
9	0	0	0	0	465	
10	0	0	0	0	463	
11	0	0	0	0	460	
12	0	0	0	0	457	
13	0	0	0	0	454	
14	0	0	0	0	451	
15	0	0	0	0	447	
0	0	0	0	0	444	
1	0	0	0	0	440	
2	0	0	0	0	438	
3	0	0	0	0	433	
4	0	0	0	0	430	
5	0	0	0	0	427	
6	0	0	0	0	423	
7	0	0	0	0	421	
8	0	0	0	0	418	
9	0	0	0	0	415	
10	0	0	0	0	411	
11	0	0	0	0	407	
12	0	0	0	0	406	
13	0	0	0	0	402	
14	0	0	0	0	399	
15	0	0	0	0	396	
0	0	0	0	0	392	
1	0	0	0	0	391	
2	0	0	0	0	387	
3	0	0	0	0	385	
4	0	0	0	0	382	
5	0	0	0	0	379	
6	0	0	0	0	377	
7	0	0	0	0	375	
8	0	0	0	0	373	
9	0	0	0	0	372	
10	0	0	0	0	370	
11	0	0	0	0	370	
12	0	0	0	0	369	
13	0	0	0	0	369	
14	0	0	0	0	368	
15	0	0	0	0	367	
0	0	0	0	0	368	
1	0	0	0	0	366	
2	0	0	0	0	366	
3	0	0	0	0	365	
4	0	0	0	0	363	
5	0	0	0	0	363	
6	0	0	0	0	363	
7	0	0	0	0	362	
8	0	0	0	0	362	
9	0	0	0	0	361	
10	0	0	0	0	361	
11	0	0	0	0	359	
12	0	0	0	0	358	
13	0	0	0	0	357	
14	0	0	0	0	355	
15	0	0	0	0	355	
0	0	0	0	0	354	
1	0	0	0	0	353	
2	0	0	0	0	352	
3	0	0	0	0	350	
4	0	0	0	0	350	
5	0	0	0	0	348	
6	0	0	0	0	348	
7	0	0	0	0	349	
8	0	0	0	0	350	
9	0	0	0	0	354	
10	0	0	0	0	357	
11	0	0	0	0	361	
12	0	0	0	0	365	
13	0	0	0	0	369	
14	0	0	0	0	374	
15	0	0	0	0	379	
0	0	0	0	0	382	
1	0	0	0	0	388	
2	0	0	0	0	391	
3	0	0	0	0	398	
4	0	0	0	0	401	
5	0	0	0	0	405	
6	0	0	0	0	409	
7	0	0	0	0	411	
8	0	0	0	0	415	
9	0	0	0	0	416	
10	0	0	0	0	417	
11	0	0	0	0	418	
12	0	0	0	0	418	
13	0	0	0	0	420	
14	0	0	0	0	420	
15	0	0	0	0	420	
0	0	0	0	0	420	
1	0	0	0	0	419	
2	0	0	0	0	420	
3	0	0	0	0	420	
4	0	0	0	0	421	
5	0	0	0	0	422	
6	0	0	0	0	421	
7	0	0	0	0	425	
8	0	0	0	0	427	
9	0	0	0	0	430	
10	0	0	0	0	433	
11	0	0	0	0	437	
12	0	0	0	0	442	
13	0	0	0	0	446	
14	0	0	0	0	450	
15	0	0	0	0	456	
0	0	0	0	0	460	
1	0	0	0	0	467	
2	0	0	0	0	470	
3	0	0	0	0	475	
4	0	0	0	0	480	
5	0	0	0	0	484	
6	0	0	0	0	488	
7	0	0	0	0	493	
8	0	0	0	0	496	
9	0	0	0	0	502	
10	0	0	0	0	506	
11	0	0	0	0	512	
12	0	0	0	0	515	
13	0	0	0	0	519	
14	0	0	0	0	524	
15	0	0	0	0	528	
0	0	0	0	0	534	
1	0	0	0	0	538	
2	0	0	0	0	542	
3	0	0	0	0	546	
4	0	0	0	0	549	
5	0	0	0	0	555	
6	0	0	0	0	556	
7	0	0	0	0	561	
8	0	0	0	0	565	
9	0	0	0	0	568	
10	0	0	0	0	574	
11	0	0	0	0	576	
12	0	0	0	0	579	
13	0	0	0	0	583	
14	0	0	0	0	585	
15	0	0	0	0	591	
0	0	0	0	0	593	
1	0	0	0	0	596	
2	0	0	0	0	600	
3	0	0	0	0	603	
4	0	0	0	0	608	
5	0	0	0	0	611	
6	0	0	0	0	613	
7	0	0	0	0	615	
8	0	0	0	0	615	
9	0	0	0	0	618	
10	0	0	0	0	618	
11	0	0	0	0	619	
12	0	0	0	0	619	
13	0	0	0	0	619	
14	0	0	0	0	620	
15	0	0	0	0	620	
0	0	0	0	0	619	
1	0	0	0	0	620	
2	0	0	0	0	619	
3	0	0	0	0	620	
4	0	0	0	0	619	
5	0	0	0	0	617	
6	0	0	0	0	617	
7	0	0	0	0	615	
8	0	0	0	0	617	
9	0	0	0	0	616	
10	0	0	0	0	615	
11	0	0	0	0	615	
12	0	0	0	0	615	
13	0	0	0	0	616	
14	0	0	0	0	615	
15	0	0	0	0	614	
0	0	0	0	0	614	
1	0	0	0	0	612	
2	0	0	0	0	612	
3	0	0	0	0	612	
4	0	0	0	0	611	
5	0	0	0	0	612	
6	0	0	0	0	611	
7	0	0	0	0	611	
8	0	0	0	0	610	
9	0	0	0	0	609	
10	0	0	0	0	609	
11	0	0	0	0	608	
12	0	0	0	0	610	
13	0	0	0	0	608	
14	0	0	0	0	608	
15	0	0	0	0	609	
0	0	0	0	0	608	
1	0	0	0	0	609	
2	0	0	0	0	608	
3	0	0	0	0	606	
4	0	0	0	0	607	
5	0	0	0	0	605	
6	0	0	0	0	606	
7	0	0	0	0	605	
8	0	0	0	0	604	
9	0	0	0	0	605	
10	0	0	0	0	603	
11	0	0	0	0	604	
12	0	0	0	0	604	
13	0	0	0	0	602	
14	0	0	0	0	603	
15	0	0	0	0	601	
0	0	0	0	0	602	
1	0	0	0	0	601	
2	0	0	0	0	600	
3	0	0	0	0	601	
4	0	0	0	0	600	
5	0	0	0	0	601	
6	0	0	0	0	601	
7	0	0	0	0	601	
8	0	0	0	0	601	
9	0	0	0	0	600	
10	0	0	0	0	601	
11	0	0	0	0	601	
12	0	0	0	0	601	
13	0	0	0	0	601	
14	0	0	0	0	600	
15	0	0	0	0	601	
0	0	0	0	0	600	
1	0	0	0	0	600	
2	0	0	0	0	600	
3	0	0	0	0	598	
4	0	0	0	0	599	
5	0	0	0	0	597	
6	0	0	0	0	596	
7	0	0	0	0	597	
8	0	0	0	0	595	
9	0	0	0	0	596	
10	0	0	0	0	594	
11	0	0	0	0	593	
12	0	0	0	0	593	
13	0	0	0	0	591	
14	0	0	0	0	593	
15	0	0	0	0	591	
0	0	0	0	0	591	
1	0	0	0	0	591	
2	0	0	0	0	588	
3	0	0	0	0	590	
4	0	0	0	0	589	
5	0	0	0	0	588	
6	0	0	0	0	588	
7	0	0	0	0	587	
8	0	0	0	0	588	
9	0	0	0	0	585	
10	0	0	0	0	585	
11	0	0	0	0	583	
12	0	0	0	0	581	
13	0	0	0	0	582	
14	0	0	0	0	580	
15	0	0	0	0	579	
0	0	0	0	0	578	
1	0	0	0	0	577	
2	0	0	0	0	577	
3	0	0	0	0	576	
4	0	0	0	0	575	
5	0	0	0	0	573	
6	0	0	0	0	571	
7	0	0	0	0	571	
8	0	0	0	0	570	
9	0	0	0	0	568	
10	0	0	0	0	568	
11	0	0	0	0	566	
12	0	0	0	0	567	
13	0	0	0	0	564	
14	0	0	0	0	563	
15	0	0	0	0	561	
0	0	0	0	0	559	
1	0	0	0	0	559	
2	0	0	0	0	557	
3	0	0	0	0	556	
4	0	0	0	0	555	
5	0	0	0	0	552	
6	0	0	0	0	552	
7	0	0	0	0	549	
8	0	0	0	0	547	
9	0	0	0	0	545	
10	0	0	0	0	543	
11	0	0	0	0	544	
12	0	0	0	0	541	
13	0	0	0	0	540	
14	0	0	0	0	538	
15	0	0	0	0	536	
0	0	0	0	0	536	
1	0	0	0	0	534	
2	0	0	0	0	533	
3	0	0	0	0	532	
4	0	0	0	0	530	
5	0	0	0	0	531	
6	0	0	0	0	529	
7	0	0	0	0	527	
8	0	0	0	0	525	
9	0	0	0	0	522	
10	0	0	0	0	521	
11	0	0	0	0	517	
12	0	0	0	0	516	
13	0	0	0	0	513	
14	0	0	0	0	510	
15	0	0	0	0	510	
0	0	0	0	0	506	
1	0	0	0	0	503	
2	0	0	0	0	501	
3	0	0	0	0	498	
4	0	0	0	0	497	
5	0	0	0	0	494	
6	0	0	0	0	492	
7	0	0	0	0	488	
8	0	0	0	0	487	
9	0	0	0	0	486	
10	0	0	0	0	483	
11	0	0	0	0	481	
12	0	0	0	0	479	
13	0	0	0	0	476	
14	0	0	0	0	475	
15	0	0	0	0	473	
0	0	0	0	0	472	
1	0	0	0	0	471	
2	0	0	0	0	468	
3	0	0	0	0	469	
4	0	0	0	0	467	
5	0	0	0	0	467	
6	0	0	0	0	466	
7	0	0	0	0	465	
8	0	0	0	0	465	
9	0	0	0	0	464	
10	0	0	0	0	464	
11	0	0	0	0	463	
12	0	0	0	0	463	
13	0	0	0	0	463	
14	0	0	0	0	463	
15	0	0	0	0	463	
0	0	0	0	0	462	
1	0	0	0	0	460	
2	0	0	0	0	461	
3	0	0	0	0	460	
4	0	0	0	0	460	
5	0	0	0	0	459	
6	0	0	0	0	457	
7	0	0	0	0	458	
8	0	0	0	0	459	
9	0	0	0	0	459	
10	0	0	0	0	459	
11	0	0	0	0	457	
12	0	0	0	0	460	
13	0	0	0	0	459	
14	0	0	0	0	459	
15	0	0	0	0	460	
0	0	0	0	0	459	
1	0	0	0	0	461	
2	0	0	0	0	460	
3	0	0	0	0	461	
4	0	0	0	0	461	
5	0	0	0	0	461	
6	0	0	0	0	463	
7	0	0	0	0	463	
8	0	0	0	0	463	
9	0	0	0	0	463	
10	0	0	0	0	463	
11	0	0	0	0	464	
12	0	0	0	0	465	
13	0	0	0	0	466	
14	0	0	0	0	466	
15	0	0	0	0	467	
0	0	0	0	0	468	
1	0	0	0	0	467	
2	0	0	0	0	467	
3	0	0	0	0	468	
4	0	0	0	0	468	
5	0	0	0	0	470	
6	0	0	0	0	469	
7	0	0	0	0	470	
8	0	0	0	0	470	
9	0	0	0	0	469	
10	0	0	0	0	471	
11	0	0	0	0	471	
12	0	0	0	0	472	
13	0	0	0	0	472	
14	0	0	0	0	471	
15	0	0	0	0	471	
0	0	0	0	0	469	
1	0	0	0	0	465	
2	0	0	0	0	464	
3	0	0	0	0	460	
4	0	0	0	0	459	
5	0	0	0	0	455	
6	0	0	0	0	451	
7	0	0	0	0	448	
8	0	0	0	0	444	
9	0	0	0	0	442	
10	0	0	0	0	439	
11	0	0	0	0	436	
12	0	0	0	0	432	
13	0	0	0	0	428	
14	0	0	0	0	425	
15	0	0	0	0	422	
0	0	0	0	0	418	
1	0	0	0	0	415	
2	0	0	0	0	411	
3	0	0	0	0	409	
4	0	0	0	0	406	
5	0	0	0	0	401	
6	0	0	0	0	399	
7	0	0	0	0	396	
8	0	0	0	0	394	
9	0	0	0	0	391	
10	0	0	0	0	388	
11	0	0	0	0	385	
12	0	0	0	0	382	
13	0	0	0	0	380	
14	0	0	0	0	378	
15	0	0	0	0	376	
0	0	0	0	0	374	
1	0	0	0	0	372	
2	0	0	0	0	373	
3	0	0	0	0	371	
4	0	0	0	0	370	
5	0	0	0	0	369	
6	0	0	0	0	368	
7	0	0	0	0	369	
8	0	0	0	0	369	
9	0	0	0	0	368	
10	0	0	0	0	367	
11	0	0	0	0	366	
12	0	0	0	0	366	
13	0	0	0	0	365	
14	0	0	0	0	364	
15	0	0	0	0	364	
0	0	0	0	0	363	
1	0	0	0	0	363	
2	0	0	0	0	361	
3	0	0	0	0	359	
4	0	0	0	0	359	
5	0	0	0	0	357	
6	0	0	0	0	357	
7	0	0	0	0	356	
8	0	0	0	0	355	
9	0	0	0	0	353	
10	0	0	0	0	352	
11	0	0	0	0	351	
12	0	0	0	0	349	
13	0	0	0	0	347	
14	0	0	0	0	347	
15	0	0	0	0	348	
0	0	0	0	0	351	
1	0	0	0	0	353	
2	0	0	0	0	356	
3	0	0	0	0	361	
4	0	0	0	0	364	
5	0	0	0	0	369	
6	0	0	0	0	373	
7	0	0	0	0	377	
8	0	0	0	0	382	
9	0	0	0	0	386	
10	0	0	0	0	392	
11	0	0	0	0	396	
12	0	0	0	0	400	
13	0	0	0	0	405	
14	0	0	0	0	409	
15	0	0	0	0	414	
0	0	0	0	0	415	
1	0	0	0	0	416	
2	0	0	0	0	418	
3	0	0	0	0	418	
4	0	0	0	0	420	
5	0	0	0	0	419	
6	0	0	0	0	420	
7	0	0	0	0	420	
8	0	0	0	0	419	
9	0	0	0	0	420	
10	0	0	0	0	421	
11	0	0	0	0	421	
12	0	0	0	0	421	
13	0	0	0	0	421	
14	0	0	0	0	423	
15	0	0	0	0	424	
0	0	0	0	0	426	
1	0	0	0	0	430	
2	0	0	0	0	433	
3	0	0	0	0	439	
4	0	0	0	0	442	
5	0	0	0	0	446	
6	0	0	0	0	451	
7	0	0	0	0	456	
8	0	0	0	0	461	
9	0	0	0	0	465	
10	0	0	0	0	469	
11	0	0	0	0	474	
12	0	0	0	0	478	
13	0	0	0	0	484	
14	0	0	0	0	487	
15	0	0	0	0	492	
0	0	0	0	0	496	
1	0	0	0	0	500	
2	0	0	0	0	507	
3	0	0	0	0	511	
4	0	0	0	0	515	
5	0	0	0	0	519	
6	0	0	0	0	523	
7	0	0	0	0	528	
8	0	0	0	0	532	
9	0	0	0	0	536	
10	0	0	0	0	541	
11	0	0	0	0	544	
12	0	0	0	0	549	
13	0	0	0	0	553	
14	0	0	0	0	556	
15	0	0	0	0	561	
0	0	0	0	0	563	
1	0	0	0	0	569	
2	0	0	0	0	572	
3	0	0	0	0	575	
4	0	0	0	0	578	
5	0	0	0	0	581	
6	0	0	0	0	585	
7	0	0	0	0	590	
8	0	0	0	0	592	
9	0	0	0	0	596	
10	0	0	0	0	599	
11	0	0	0	0	604	
12	0	0	0	0	606	
13	0	0	0	0	610	
14	0	0	0	0	613	
15	0	0	0	0	613	
0	0	0	0	0	617	
1	0	0	0	0	616	
2	0	0	0	0	617	
3	0	0	0	0	617	
4	0	0	0	0	616	
5	0	0	0	0	619	
6	0	0	0	0	618	
7	0	0	0	0	617	
8	0	0	0	0	617	
9	0	0	0	0	616	
10	0	0	0	0	617	
11	0	0	0	0	617	
12	0	0	0	0	616	
13	0	0	0	0	617	
14	0	0	0	0	615	
15	0	0	0	0	617	
0	0	0	0	0	615	
1	0	0	0	0	615	
2	0	0	0	0	615	
3	0	0	0	0	614	
4	0	0	0	0	615	
5	0	0	0	0	615	
6	0	0	0	0	613	
7	0	0	0	0	615	
8	0	0	0	0	613	
9	0	0	0	0	615	
10	0	0	0	0	613	
11	0	0	0	0	612	
12	0	0	0	0	612	
13	0	0	0	0	611	
14	0	0	0	0	611	
15	0	0	0	0	611	
0	0	0	0	0	610	
1	0	0	0	0	610	
2	0	0	0	0	608	
3	0	0	0	0	609	
4	0	0	0	0	608	
5	0	0	0	0	608	
6	0	0	0	0	607	
7	0	0	0	0	607	
8	0	0	0	0	606	
9	0	0	0	0	606	
10	0	0	0	0	605	
11	0	0	0	0	606	
12	0	0	0	0	604	
13	0	0	0	0	606	
14	0	0	0	0	605	
15	0	0	0	0	604	
0	0	0	0	0	604	
1	0	0	0	0	603	
2	0	0	0	0	604	
3	0	0	0	0	604	
4	0	0	0	0	603	
5	0	0	0	0	603	
6	0	0	0	0	602	
7	0	0	0	0	603	
8	0	0	0	0	602	
9	0	0	0	0	602	
10	0	0	0	0	602	
11	0	0	0	0	600	
12	0	0	0	0	601	
13	0	0	0	0	601	
14	0	0	0	0	600	
15	0	0	0	0	601	
0	0	0	0	0	600	
1	0	0	0	0	602	
2	0	0	0	0	601	
3	0	0	0	0	600	
4	0	0	0	0	600	
5	0	0	0	0	599	
6	0	0	0	0	601	
7	0	0	0	0	600	
8	0	0	0	0	599	
9	0	0	0	0	598	
10	0	0	0	0	596	
11	0	0	0	0	598	
12	0	0	0	0	597	
13	0	0	0	0	596	
14	0	0	0	0	597	
15	0	0	0	0	595	
0	0	0	0	0	596	
1	0	0	0	0	595	
2	0	0	0	0	594	
3	0	0	0	0	595	
4	0	0	0	0	593	
5	0	0	0	0	595	
6	0	0	0	0	593	
7	0	0	0	0	593	
8	0	0	0	0	592	
9	0	0	0	0	591	
10	0	0	0	0	592	
11	0	0	0	0	591	
12	0	0	0	0	591	
13	0	0	0	0	590	
14	0	0	0	0	588	
15	0	0	0	0	588	
0	0	0	0	0	587	
1	0	0	0	0	586	
2	0	0	0	0	585	
3	0	0	0	0	583	
4	0	0	0	0	583	
5	0	0	0	0	582	
6	0	0	0	0	582	
7	0	0	0	0	581	
8	0	0	0	0	579	
9	0	0	0	0	579	
10	0	0	0	0	577	
11	0	0	0	0	576	
12	0	0	0	0	575	
13	0	0	0	0	572	
14	0	0	0	0	574	
15	0	0	0	0	572	
0	0	0	0	0	571	
1	0	0	0	0	569	
2	0	0	0	0	568	
3	0	0	0	0	568	
4	0	0	0	0	566	
5	0	0	0	0	565	
6	0	0	0	0	563	
7	0	0	0	0	561	
8	0	0	0	0	562	
9	0	0	0	0	560	
10	0	0	0	0	559	
11	0	0	0	0	557	
12	0	0	0	0	555	
13	0	0	0	0	555	
14	0	0	0	0	552	
15	0	0	0	0	550	
0	0	0	0	0	549	
1	0	0	0	0	546	
2	0	0	0	0	547	
3	0	0	0	0	544	
4	0	0	0	0	543	
5	0	0	0	0	543	
6	0	0	0	0	540	
7	0	0	0	0	540	
8	0	0	0	0	538	
9	0	0	0	0	536	
10	0	0	0	0	534	
11	0	0	0	0	532	
12	0	0	0	0	532	
13	0	0	0	0	530	
14	0	0	0	0	529	
15	0	0	0	0	527	
0	0	0	0	0	524	
1	0	0	0	0	524	
2	0	0	0	0	520	
3	0	0	0	0	518	
4	0	0	0	0	515	
5	0	0	0	0	512	
6	0	0	0	0	511	
7	0	0	0	0	509	
8	0	0	0	0	506	
9	0	0	0	0	504	
10	0	0	0	0	501	
11	0	0	0	0	501	
12	0	0	0	0	498	
13	0	0	0	0	496	
14	0	0	0	0	493	
15	0	0	0	0	491	
0	0	0	0	0	489	
1	0	0	0	0	486	
2	0	0	0	0	484	
3	0	0	0	0	481	
4	0	0	0	0	479	
5	0	0	0	0	478	
6	0	0	0	0	476	
7	0	0	0	0	474	
8	0	0	0	0	472	
9	0	0	0	0	471	
10	0	0	0	0	472	
11	0	0	0	0	470	
12	0	0	0	0	469	
13	0	0	0	0	468	
14	0	0	0	0	467	
15	0	0	0	0	468	
0	0	0	0	0	468	
1	0	0	0	0	467	
2	0	0	0	0	467	
3	0	0	0	0	466	
4	0	0	0	0	467	
5	0	0	0	0	465	
6	0	0	0	0	465	
7	0	0	0	0	464	
8	0	0	0	0	463	
9	0	0	0	0	463	
10	0	0	0	0	463	
11	0	0	0	0	462	
12	0	0	0	0	463	
13	0	0	0	0	462	
14	0	0	0	0	463	
15	0	0	0	0	462	
0	0	0	0	0	461	
1	0	0	0	0	461	
2	0	0	0	0	461	
3	0	0	0	0	462	
4	0	0	0	0	462	
5	0	0	0	0	462	
6	0	0	0	0	462	
7	0	0	0	0	462	
8	0	0	0	0	464	
9	0	0	0	0	463	
10	0	0	0	0	463	
11	0	0	0	0	464	
12	0	0	0	0	464	
13	0	0	0	0	465	
14	0	0	0	0	465	
15	0	0	0	0	465	
0	0	0	0	0	465	
1	0	0	0	0	464	
2	0	0	0	0	466	
3	0	0	0	0	466	
4	0	0	0	0	466	
5	0	0	0	0	466	
6	0	0	0	0	466	
7	0	0	0	0	468	
8	0	0	0	0	468	
9	0	0	0	0	468	
10	0	0	0	0	469	
11	0	0	0	0	468	
12	0	0	0	0	471	
13	0	0	0	0	469	
14	0	0	0	0	470	
15	0	0	0	0	471	
0	0	0	0	0	470	
1	0	0	0	0	472	
2	0	0	0	0	471	
3	0	0	0	0	471	
4	0	0	0	0	472	
5	0	0	0	0	471	
6	0	0	0	0	472	
7	0	0	0	0	470	
8	0	0	0	0	469	
9	0	0	0	0	466	
10	0	0	0	0	462	
11	0	0	0	0	461	
12	0	0	0	0	457	
13	0	0	0	0	453	
14	0	0	0	0	451	
15	0	0	0	0	447	
0	0	0	0	0	445	
1	0	0	0	0	441	
2	0	0	0	0	437	
3	0	0	0	0	433	
4	0	0	0	0	431	
5	0	0	0	0	429	
6	0	0	0	0	425	
7	0	0	0	0	422	
8	0	0	0	0	419	
9	0	0	0	0	415	
10	0	0	0	0	414	
11	0	0	0	0	410	
12	0	0	0	0	407	
13	0	0	0	0	403	
14	0	0	0	0	399	
15	0	0	0	0	398	
0	0	0	0	0	395	
1	0	0	0	0	391	
2	0	0	0	0	388	
3	0	0	0	0	385	
4	0	0	0	0	384	
5	0	0	0	0	381	
6	0	0	0	0	379	
7	0	0	0	0	377	
8	0	0	0	0	375	
9	0	0	0	0	374	
10	0	0	0	0	372	
11	0	0	0	0	371	
12	0	0	0	0	371	
13	0	0	0	0	368	
14	0	0	0	0	369	
15	0	0	0	0	368	
0	0	0	0	0	367	
1	0	0	0	0	366	
2	0	0	0	0	366	
3	0	0	0	0	366	
4	0	0	0	0	365	
5	0	0	0	0	365	
6	0	0	0	0	365	
7	0	0	0	0	363	
8	0	0	0	0	363	
9	0	0	0	0	362	
10	0	0	0	0	360	
11	0	0	0	0	359	
12	0	0	0	0	358	
13	0	0	0	0	358	
14	0	0	0	0	356	
15	0	0	0	0	355	
0	0	0	0	0	353	
1	0	0	0	0	351	
2	0	0	0	0	351	
3	0	0	0	0	349	
4	0	0	0	0	348	
5	0	0	0	0	346	
6	0	0	0	0	346	
7	0	0	0	0	348	
8	0	0	0	0	350	
9	0	0	0	0	353	
10	0	0	0	0	356	
11	0	0	0	0	359	
12	0	0	0	0	365	
13	0	0	0	0	369	
14	0	0	0	0	373	
15	0	0	0	0	378	
0	0	0	0	0	382	
1	0	0	0	0	388	
2	0	0	0	0	391	
3	0	0	0	0	396	
4	0	0	0	0	400	
5	0	0	0	0	404	
6	0	0	0	0	410	
7	0	0	0	0	412	
8	0	0	0	0	414	
9	0	0	0	0	416	
10	0	0	0	0	416	
11	0	0	0	0	418	
12	0	0	0	0	419	
13	0	0	0	0	419	
14	0	0	0	0	420	
15	0	0	0	0	420	
0	0	0	0	0	422	
1	0	0	0	0	422	
2	0	0	0	0	422	
3	0	0	0	0	422	
4	0	0	0	0	422	
5	0	0	0	0	423	
6	0	0	0	0	423	
7	0	0	0	0	425	
8	0	0	0	0	427	
9	0	0	0	0	430	
10	0	0	0	0	435	
11	0	0	0	0	438	
12	0	0	0	0	443	
13	0	0	0	0	447	
14	0	0	0	0	450	
15	0	0	0	0	457	
0	0	0	0	0	461	
1	0	0	0	0	465	
2	0	0	0	0	470	
3	0	0	0	0	475	
4	0	0	0	0	481	
5	0	0	0	0	485	
6	0	0	0	0	488	
7	0	0	0	0	494	
8	0	0	0	0	497	
9	0	0	0	0	504	
10	0	0	0	0	507	
11	0	0	0	0	512	
12	0	0	0	0	516	
13	0	0	0	0	520	
14	0	0	0	0	526	
15	0	0	0	0	529	
0	0	0	0	0	534	
1	0	0	0	0	539	
2	0	0	0	0	542	
3	0	0	0	0	547	
4	0	0	0	0	550	
5	0	0	0	0	555	
6	0	0	0	0	559	
7	0	0	0	0	561	
8	0	0	0	0	566	
9	0	0	0	0	569	
10	0	0	0	0	572	
11	0	0	0	0	577	
12	0	0	0	0	579	
13	0	0	0	0	585	
14	0	0	0	0	587	
15	0	0	0	0	591	
0	0	0	0	0	593	
1	0	0	0	0	596	
2	0	0	0	0	601	
3	0	0	0	0	603	
4	0	0	0	0	606	
5	0	0	0	0	610	
6	0	0	0	0	612	
7	0	0	0	0	615	
8	0	0	0	0	615	
9	0	0	0	0	617	
10	0	0	0	0	618	
11	0	0	0	0	616	
12	0	0	0	0	619	
13	0	0	0	0	618	
14	0	0	0	0	618	
15	0	0	0	0	618	
0	0	0	0	0	616	
1	0	0	0	0	619	
2	0	0	0	0	617	
3	0	0	0	0	616	
4	0	0	0	0	616	
5	0	0	0	0	615	
6	0	0	0	0	617	
7	0	0	0	0	616	
8	0	0	0	0	616	
9	0	0	0	0	616	
10	0	0	0	0	614	
11	0	0	0	0	616	
12	0	0	0	0	615	
13	0	0	0	0	614	
14	0	0	0	0	615	
15	0	0	0	0	613	
0	0	0	0	0	615	
1	0	0	0	0	613	
2	0	0	0	0	612	
3	0	0	0	0	613	
4	0	0	0	0	611	
5	0	0	0	0	612	
6	0	0	0	0	611	
7	0	0	0	0	611	
8	0	0	0	0	610	
9	0	0	0	0	609	
10	0	0	0	0	611	
11	0	0	0	0	609	
12	0	0	0	0	608	
13	0	0	0	0	609	
14	0	0	0	0	608	
15	0	0	0	0	609	
0	0	0	0	0	608	
1	0	0	0	0	607	
2	0	0	0	0	607	
3	0	0	0	0	605	
4	0	0	0	0	606	
5	0	0	0	0	604	
6	0	0	0	0	604	
7	0	0	0	0	604	
8	0	0	0	0	603	
9	0	0	0	0	605	
10	0	0	0	0	604	
11	0	0	0	0	604	
12	0	0	0	0	604	
13	0	0	0	0	603	
14	0	0	0	0	604	
15	0	0	0	0	604	
0	0	0	0	0	604	
1	0	0	0	0	604	
2	0	0	0	0	602	
3	0	0	0	0	604	
4	0	0	0	0	603	
5	0	0	0	0	602	
6	0	0	0	0	601	
7	0	0	0	0	600	
8	0	0	0	0	602	
9	0	0	0	0	601	
10	0	0	0	0	601	
11	0	0	0	0	601	
12	0	0	0	0	599	
13	0	0	0	0	601	
14	0	0	0	0	600	
15	0	0	0	0	600	
0	0	0	0	0	600	
1	0	0	0	0	598	
2	0	0	0	0	600	
3	0	0	0	0	598	
4	0	0	0	0	596	
5	0	0	0	0	596	
6	0	0	0	0	595	
7	0	0	0	0	598	
8	0	0	0	0	595	
9	0	0	0	0	595	
10	0	0	0	0	595	
11	0	0	0	0	593	
12	0	0	0	0	595	
13	0	0	0	0	593	
14	0	0	0	0	592	
15	0	0	0	0	592	
0	0	0	0	0	590	
1	0	0	0	0	591	
2	0	0	0	0	589	
3	0	0	0	0	590	
4	0	0	0	0	590	
5	0	0	0	0	587	
6	0	0	0	0	588	
7	0	0	0	0	587	
8	0	0	0	0	585	
9	0	0	0	0	585	
10	0	0	0	0	583	
11	0	0	0	0	584	
12	0	0	0	0	583	
13	0	0	0	0	582	
14	0	0	0	0	581	
15	0	0	0	0	579	
0	0	0	0	0	581	
1	0	0	0	0	577	
2	0	0	0	0	576	
3	0	0	0	0	574	
4	0	0	0	0	572	
5	0	0	0	0	573	
6	0	0	0	0	572	
7	0	0	0	0	571	
8	0	0	0	0	569	
9	0	0	0	0	568	
10	0	0	0	0	569	
11	0	0	0	0	567	
12	0	0	0	0	566	
13	0	0	0	0	565	
14	0	0	0	0	563	
15	0	0	0	0	563	
0	0	0	0	0	561	
1	0	0	0	0	559	
2	0	0	0	0	558	
3	0	0	0	0	555	
4	0	0	0	0	555	
5	0	0	0	0	552	
6	0	0	0	0	551	
7	0	0	0	0	549	
8	0	0	0	0	547	
9	0	0	0	0	547	
10	0	0	0	0	545	
11	0	0	0	0	543	
12	0	0	0	0	542	
13	0	0	0	0	540	
14	0	0	0	0	541	
15	0	0	0	0	537	
0	0	0	0	0	536	
1	0	0	0	0	535	
2	0	0	0	0	533	
3	0	0	0	0	533	
4	0	0	0	0	531	
5	0	0	0	0	529	
6	0	0	0	0	528	
7	0	0	0	0	526	
8	0	0	0	0	526	
9	0	0	0	0	523	
10	0	0	0	0	520	
11	0	0	0	0	518	
12	0	0	0	0	515	
13	0	0	0	0	514	
14	0	0	0	0	512	
15	0	0	0	0	509	
0	0	0	0	0	507	
1	0	0	0	0	504	
2	0	0	0	0	502	
3	0	0	0	0	500	
4	0	0	0	0	498	
5	0	0	0	0	495	
6	0	0	0	0	491	
7	0	0	0	0	490	
8	0	0	0	0	487	
9	0	0	0	0	486	
10	0	0	0	0	484	
11	0	0	0	0	480	
12	0	0	0	0	480	
13	0	0	0	0	477	
14	0	0	0	0	475	
15	0	0	0	0	475	
0	0	0	0	0	472	
1	0	0	0	0	472	
2	0	0	0	0	469	
3	0	0	0	0	469	
4	0	0	0	0	468	
5	0	0	0	0	467	
6	0	0	0	0	468	
7	0	0	0	0	466	
8	0	0	0	0	466	
9	0	0	0	0	465	
10	0	0	0	0	464	
11	0	0	0	0	465	
12	0	0	0	0	464	
13	0	0	0	0	463	
14	0	0	0	0	463	
15	0	0	0	0	462	
0	0	0	0	0	462	
1	0	0	0	0	461	
2	0	0	0	0	460	
3	0	0	0	0	460	
4	0	0	0	0	459	
5	0	0	0	0	461	
6	0	0	0	0	460	
7	0	0	0	0	460	
8	0	0	0	0	460	
9	0	0	0	0	459	
10	0	0	0	0	461	
11	0	0	0	0	460	
12	0	0	0	0	461	
13	0	0	0	0	462	
14	0	0	0	0	461	
15	0	0	0	0	464	
0	0	0	0	0	463	
1	0	0	0	0	463	
2	0	0	0	0	464	
3	0	0	0	0	463	
4	0	0	0	0	465	
5	0	0	0	0	464	
6	0	0	0	0	465	
7	0	0	0	0	465	
8	0	0	0	0	465	
9	0	0	0	0	467	
10	0	0	0	0	466	
11	0	0	0	0	466	
12	0	0	0	0	467	
13	0	0	0	0	468	
14	0	0	0	0	470	
15	0	0	0	0	468	
0	0	0	0	0	468	
1	0	0	0	0	468	
2	0	0	0	0	467	
3	0	0	0	0	468	
4	0	0	0	0	468	
5	0	0	0	0	468	
6	0	0	0	0	469	
7	0	0	0	0	469	
8	0	0	0	0	471	
9	0	0	0	0	471	
10	0	0	0	0	471	
11	0	0	0	0	471	
12	0	0	0	0	471	
13	0	0	0	0	472	
14	0	0	0	0	472	
15	0	0	0	0	470	
0	0	0	0	0	468	
1	0	0	0	0	464	
2	0	0	0	0	463	
3	0	0	0	0	459	
4	0	0	0	0	455	
5	0	0	0	0	452	
6	0	0	0	0	449	
7	0	0	0	0	447	
8	0	0	0	0	443	
9	0	0	0	0	440	
10	0	0	0	0	436	
11	0	0	0	0	432	
12	0	0	0	0	430	
13	0	0	0	0	426	
14	0	0	0	0	423	
15	0	0	0	0	420	
0	0	0	0	0	416	
1	0	0	0	0	415	
2	0	0	0	0	411	
3	0	0	0	0	407	
4	0	0	0	0	404	
5	0	0	0	0	400	
6	0	0	0	0	399	
7	0	0	0	0	396	
8	0	0	0	0	392	
9	0	0	0	0	389	
10	0	0	0	0	386	
11	0	0	0	0	384	
12	0	0	0	0	382	
13	0	0	0	0	379	
14	0	0	0	0	376	
15	0	0	0	0	374	
0	0	0	0	0	373	
1	0	0	0	0	372	
2	0	0	0	0	370	
3	0	0	0	0	369	
4	0	0	0	0	368	
5	0	0	0	0	368	
6	0	0	0	0	367	
7	0	0	0	0	366	
8	0	0	0	0	366	
9	0	0	0	0	365	
10	0	0	0	0	366	
11	0	0	0	0	365	
12	0	0	0	0	365	
13	0	0	0	0	365	
14	0	0	0	0	363	
15	0	0	0	0	364	
0	0	0	0	0	363	
1	0	0	0	0	361	
2	0	0	0	0	361	
3	0	0	0	0	359	
4	0	0	0	0	359	
5	0	0	0	0	357	
6	0	0	0	0	356	
7	0	0	0	0	354	
8	0	0	0	0	353	
9	0	0	0	0	352	
10	0	0	0	0	352	
11	0	0	0	0	351	
12	0	0	0	0	350	
13	0	0	0	0	348	
14	0	0	0	0	349	
15	0	0	0	0	351	
0	0	0	0	0	352	
1	0	0	0	0	355	
2	0	0	0	0	357	
3	0	0	0	0	363	
4	0	0	0	0	366	
5	0	0	0	0	370	
6	0	0	0	0	374	
7	0	0	0	0	379	
8	0	0	0	0	384	
9	0	0	0	0	388	
10	0	0	0	0	392	
11	0	0	0	0	398	
12	0	0	0	0	401	
13	0	0	0	0	407	
14	0	0	0	0	410	
15	0	0	0	0	413	
0	0	0	0	0	415	
1	0	0	0	0	415	
2	0	0	0	0	418	
3	0	0	0	0	419	
4	0	0	0	0	419	
5	0	0	0	0	419	
6	0	0	0	0	419	
7	0	0	0	0	421	
8	0	0	0	0	421	
9	0	0	0	0	420	
10	0	0	0	0	421	
11	0	0	0	0	420	
12	0	0	0	0	422	
13	0	0	0	0	422	
14	0	0	0	0	422	
15	0	0	0	0	424	
0	0	0	0	0	426	
1	0	0	0	0	431	
2	0	0	0	0	434	
3	0	0	0	0	438	
4	0	0	0	0	442	
5	0	0	0	0	447	
6	0	0	0	0	451	
7	0	0	0	0	456	
8	0	0	0	0	460	
9	0	0	0	0	465	
10	0	0	0	0	468	
11	0	0	0	0	475	
12	0	0	0	0	478	
13	0	0	0	0	482	
14	0	0	0	0	487	
15	0	0	0	0	492	
0	0	0	0	0	497	
1	0	0	0	0	502	
2	0	0	0	0	506	
3	0	0	0	0	510	
4	0	0	0	0	513	
5	0	0	0	0	519	
6	0	0	0	0	523	
7	0	0	0	0	527	
8	0	0	0	0	531	
